Elapsed time,Direct_1,Abdomen_1,Abdomen_2,Abdomen_3,Abdomen_4,EDF Annotations
,,,,,,
0,28.8,-8.8,13.4,22.1,32.6,0.688
0.001,26.7,-13.9,12.7,21.8,35.401,0.688
0.002,24.8,-18.7,12.1,21.3,37.601,0.688
0.003,23.8,-23.4,11.5,20.3,39.001,0.688
0.004,23.6,-27.9,10.5,18.6,39.501,0.688
0.005,23.7,-32.801,8.7,16,39.301,0.688
0.006,23.7,-38.101,6.1,12.7,38.801,0.688
0.007,23.7,-43.801,2.9,9,38.201,0.688
0.008,23.8,-49.301,-0.3,5.4,37.501,0.688
0.009,24.4,-54.001,-3.2,2.3,36.601,0.688
0.01,25.4,-57.501,-5.3,0,35.301,0.578
0.011,26.5,-59.501,-6.4,-1.6,33.501,0.578
0.012,27.4,-60.401,-6.7,-2.5,31.6,0.578
0.013,27.9,-60.501,-6.2,-2.9,30,0.578
0.014,28.3,-60.301,-5.5,-2.7,29.1,0.578
0.015,28.6,-59.701,-4.7,-1.9,29.1,0.578
0.016,28.9,-58.901,-4.2,-0.7,29.6,0.578
0.017,28.9,-57.601,-4,0.7,30.1,0.578
0.018,28.5,-55.701,-3.8,1.6,29.7,0.578
0.019,27.8,-53.001,-3.6,1.5,27.8,0.578
0.02,27.6,-49.401,-3.3,0.2,24.1,0.668
0.021,28.4,-44.901,-3,-2.1,18.8,0.668
0.022,30.4,-39.601,-3.1,-4.7,12.6,0.668
0.023,32.901,-33.701,-3.8,-6.9,6.2,0.668
0.024,34.701,-27.8,-5,-8.4,0.1,0.668
0.025,35.001,-22.2,-6.4,-9.3,-4.9,0.668
0.026,33.901,-17.2,-7.7,-9.9,-8.7,0.668
0.027,32.2,-12.9,-8.4,-10.6,-11.2,0.668
0.028,31.5,-9.4,-8.8,-11.3,-12.7,0.668
0.029,32.801,-6.6,-8.8,-11.9,-13.4,0.668
0.03,35.901,-4.5,-8.6,-12.2,-13.6,0.68
0.031,39.901,-2.7,-8.5,-11.9,-13.5,0.68
0.032,43.301,-1.1,-8.4,-11.3,-13.5,0.68
0.033,45.101,0.7,-8.3,-10.6,-13.9,0.68
0.034,45.401,2.7,-8.3,-10.3,-14.8,0.68
0.035,45.001,4.6,-8.6,-10.5,-16.3,0.68
0.036,44.801,6,-9.6,-11.4,-18.5,0.68
0.037,45.301,6.4,-11.4,-12.8,-20.9,0.68
0.038,46.201,5.7,-13.6,-14.3,-23.3,0.68
0.039,46.601,4.3,-15.8,-15.5,-25,0.68
0.04,46.001,2.7,-17.4,-16,-25.9,0.72
0.041,44.801,1.8,-18,-15.5,-25.8,0.72
0.042,43.901,2,-17.8,-14.1,-25,0.72
0.043,44.201,2.9,-17,-12.2,-24.2,0.72
0.044,46.201,4.1,-16.2,-10.3,-23.6,0.72
0.045,48.901,4.7,-15.8,-8.9,-23.3,0.72
0.046,50.701,4.5,-15.7,-8.3,-23.2,0.72
0.047,50.101,3.5,-15.7,-8.3,-22.8,0.72
0.048,46.901,2.3,-15.7,-8.6,-21.9,0.72
0.049,42.301,1.4,-15.5,-8.8,-20.6,0.72
0.05,38.501,1,-15.1,-8.6,-19,0.579
0.051,37.101,1.1,-14.6,-8,-17.3,0.579
0.052,38.401,1.3,-14.2,-7.1,-15.8,0.579
0.053,41.401,1.3,-13.7,-5.9,-14.3,0.579
0.054,44.201,1,-12.9,-4.7,-12.7,0.579
0.055,45.301,0.7,-11.8,-3.3,-11,0.579
0.056,44.301,0.5,-10.4,-2.1,-9.5,0.579
0.057,41.901,0.6,-9.1,-1,-8.5,0.579
0.058,39.401,0.7,-8.3,-0.2,-8.2,0.579
0.059,37.701,0.7,-8.2,0.3,-8.2,0.579
0.06,37.101,0.4,-8.7,0.5,-8.3,0.822
0.061,37.301,-0.1,-9.4,0.6,-7.8,0.822
0.062,38.001,-0.7,-9.8,0.7,-6.9,0.822
0.063,38.901,-0.9,-9.6,1,-5.9,0.822
0.064,40.001,-0.5,-8.8,1.4,-5.3,0.822
0.065,40.701,0.1,-8,2,-5.5,0.822
0.066,40.401,0.8,-7.5,2.7,-6.5,0.822
0.067,38.601,1.1,-7.6,3.2,-7.6,0.822
0.068,35.601,1,-8.2,3.5,-8.3,0.822
0.069,32.3,0.6,-8.7,3.4,-8.1,0.822
0.07,30.1,0.4,-8.7,3,-7.3,0.579
0.071,30.1,0.8,-8,2.2,-6.3,0.579
0.072,32,1.8,-6.8,1.4,-5.8,0.579
0.073,34.701,3,-5.5,0.6,-6.1,0.579
0.074,36.401,3.9,-4.4,0.1,-7,0.579
0.075,36.201,4.2,-3.8,-0.3,-7.9,0.579
0.076,34.101,3.6,-3.4,-0.5,-8.4,0.579
0.077,31.4,2.6,-3.2,-0.5,-8.3,0.579
0.078,29.6,1.5,-2.9,-0.4,-7.9,0.579
0.079,29.9,0.7,-2.8,-0.1,-7.4,0.579
0.08,32.3,0.3,-3,0.3,-7,0.668
0.081,35.901,0.2,-3.7,0.9,-6.8,0.668
0.082,39.301,0.3,-4.6,1.4,-6.6,0.668
0.083,41.401,0.4,-5.5,1.6,-6.3,0.668
0.084,41.501,0.4,-5.8,1.4,-6.1,0.668
0.085,39.801,0.3,-5.6,1,-6.1,0.668
0.086,37.101,-0.1,-4.9,0.5,-6.4,0.668
0.087,34.401,-0.9,-4.2,0.2,-6.9,0.668
0.088,32.6,-1.8,-3.7,0.3,-7.1,0.668
0.089,32.3,-2.5,-3.5,0.7,-6.8,0.668
0.09,33.501,-2.5,-3.5,1.3,-6.2,0.68
0.091,35.501,-1.6,-3.6,1.7,-5.5,0.68
0.092,37.201,0,-3.8,1.8,-5.2,0.68
0.093,38.001,1.5,-4.1,1.4,-5.3,0.68
0.094,37.501,2.3,-4.5,0.8,-5.8,0.68
0.095,36.301,2.3,-5,0.3,-6.2,0.68
0.096,35.201,1.4,-5.2,-0.1,-6.2,0.68
0.097,34.801,0.3,-4.8,-0.2,-5.9,0.68
0.098,35.301,-0.4,-3.9,0,-5.4,0.68
0.099,36.101,-0.7,-2.8,0.2,-5.1,0.68
0.1,36.401,-0.6,-2.1,0.5,-5.1,0.708
0.101,35.601,-0.4,-2.1,0.9,-5.3,0.708
0.102,33.901,-0.3,-2.9,1.4,-5.3,0.708
0.103,32.1,-0.5,-4,2,-5,0.708
0.104,31.4,-0.7,-5,2.7,-4.3,0.708
0.105,32.2,-0.8,-5.4,3.2,-3.7,0.708
0.106,34.201,-0.8,-5.4,3.5,-3.5,0.708
0.107,36.001,-0.6,-5.2,3.3,-3.8,0.708
0.108,36.701,-0.3,-5.4,2.8,-4.6,0.708
0.109,35.501,-0.2,-6.1,2.2,-5.6,0.708
0.11,33.101,-0.1,-7,1.5,-6.2,0.579
0.111,30.4,-0.1,-7.9,1.1,-6.3,0.579
0.112,28.8,0,-8.4,0.8,-5.8,0.579
0.113,28.8,0.1,-8.3,0.8,-4.8,0.579
0.114,30.7,0.3,-7.7,0.8,-3.7,0.579
0.115,33.801,0.5,-6.9,0.8,-2.9,0.579
0.116,37.301,0.8,-6,0.8,-2.4,0.579
0.117,40.401,1.3,-5.3,0.8,-2.3,0.579
0.118,42.101,1.7,-4.7,1,-2.4,0.579
0.119,41.801,2,-4.2,1.2,-2.3,0.579
0.12,39.301,2.2,-3.7,1.6,-1.8,0.822
0.121,35.301,2.2,-3.1,2.1,-0.8,0.822
0.122,31.1,2.2,-2.4,2.6,0.3,0.822
0.123,28.2,2.4,-1.6,3,1.3,0.822
0.124,27.4,2.8,-0.7,3.2,1.6,0.822
0.125,28.4,3.5,0.1,3.2,1.3,0.822
0.126,30.2,4.2,0.6,3,0.5,0.822
0.127,31.4,4.5,0.4,2.7,-0.2,0.822
0.128,31.6,4.5,-0.3,2.4,-0.6,0.822
0.129,31.1,4.3,-1.2,2.5,-0.3,0.822
0.13,31.2,4.2,-2,2.8,0.3,0.579
0.131,32.801,4.6,-2.3,3.4,1,0.579
0.132,35.801,5.4,-2.1,4,1.5,0.579
0.133,39.101,6.3,-1.7,4.2,1.6,0.579
0.134,41.301,6.6,-1.5,3.9,1.3,0.579
0.135,41.701,5.9,-1.8,3.4,0.8,0.579
0.136,40.701,4.2,-2.7,2.9,0.2,0.579
0.137,39.301,2.3,-4,2.8,-0.1,0.579
0.138,38.801,0.7,-5.2,3.2,-0.3,0.579
0.139,39.301,0,-6.2,4,-0.1,0.579
0.14,40.101,0.2,-6.9,4.9,0.1,0.668
0.141,40.001,0.7,-7.3,5.3,0.4,0.668
0.142,38.001,0.6,-7.6,5,0.6,0.668
0.143,34.601,-0.2,-7.9,4,0.7,0.668
0.144,30.9,-1.7,-8.1,2.9,0.7,0.668
0.145,28.8,-3.1,-8.3,1.8,0.5,0.668
0.146,29.4,-4,-8.4,1.3,0.4,0.668
0.147,32.6,-4,-8.4,1.1,0.3,0.668
0.148,37.001,-3.6,-8.4,1.2,0.3,0.668
0.149,40.501,-3.2,-8.3,1.3,0.4,0.668
0.15,41.701,-3.3,-8.2,1.3,0.8,0.68
0.151,40.301,-3.9,-7.9,1.2,1.1,0.68
0.152,37.401,-4.6,-7.5,1.3,1.2,0.68
0.153,34.801,-5.1,-7.3,1.4,1.1,0.68
0.154,34.001,-5.4,-7.2,1.6,0.5,0.68
0.155,35.401,-5.6,-7.3,1.5,-0.3,0.68
0.156,38.101,-5.9,-7.6,1.1,-1,0.68
0.157,41.001,-6.4,-7.8,0.5,-1.4,0.68
0.158,42.701,-7.1,-7.9,0,-1.3,0.68
0.159,42.801,-7.6,-8,-0.2,-1.1,0.68
0.16,41.601,-7.9,-8.3,-0.1,-1,0.692
0.161,39.601,-8.1,-9.1,0.1,-1.3,0.692
0.162,37.501,-8.6,-10.4,0.2,-1.9,0.692
0.163,35.801,-9.3,-12,0.3,-2.5,0.692
0.164,34.901,-10.1,-13.3,0.5,-2.3,0.692
0.165,34.801,-10.6,-13.9,1.1,-1.2,0.692
0.166,35.801,-10.5,-13.4,2.4,0.8,0.692
0.167,37.801,-9.6,-12.2,4,3,0.692
0.168,40.401,-8.5,-10.6,5.6,4.9,0.692
0.169,43.501,-7.4,-9,6.8,6.2,0.692
0.17,46.601,-6.7,-7.7,7.5,7.2,0.579
0.171,49.801,-6.3,-6.5,7.9,8.2,0.579
0.172,53.601,-5.9,-5,8.3,9.9,0.579
0.173,58.301,-5,-3,9.1,12.5,0.579
0.174,64.401,-3.5,-0.2,10.5,16.3,0.579
0.175,72.001,-1.4,3.2,12.6,21.1,0.579
0.176,80.801,1.2,6.9,15.2,26.6,0.579
0.177,90.501,4,10.6,18.2,32.3,0.579
0.178,100.302,6.9,13.8,21.2,37.601,0.579
0.179,109.502,9.6,16.1,23.7,41.301,0.579
0.18,116.902,11.8,17.2,25,42.901,0.822
0.181,121.402,12.9,16.7,24.8,41.801,0.822
0.182,122.202,12.6,15,23,38.401,0.822
0.183,119.102,10.8,12.3,20,33.701,0.822
0.184,112.502,8.1,9.5,16.6,28.6,0.822
0.185,103.502,5.1,6.8,13.4,23.8,0.822
0.186,93.201,2.1,4.5,10.7,19.3,0.822
0.187,82.201,-0.5,2,8.3,14.9,0.822
0.188,70.601,-3.1,-1.2,5.8,10.1,0.822
0.189,57.701,-5.9,-5.4,3,4.7,0.822
0.19,43.501,-9.1,-10.5,-0.1,-0.7,0.579
0.191,28.2,-12.3,-15.4,-3,-5.5,0.579
0.192,13.2,-15.1,-19.2,-5.1,-8.7,0.579
0.193,0.3,-17,-21.1,-6,-10.1,0.579
0.194,-8.5,-17.7,-21,-5.8,-9.8,0.579
0.195,-12.6,-17.4,-19.3,-4.8,-8.4,0.579
0.196,-12.1,-16.5,-17,-3.6,-6.6,0.579
0.197,-8.7,-15.6,-14.9,-2.6,-5.1,0.579
0.198,-4.4,-14.9,-13.5,-2,-3.9,0.579
0.199,-0.9,-14.8,-12.6,-1.6,-2.8,0.579
0.2,1.5,-14.8,-12,-1.2,-1.4,0.668
0.201,3.3,-14.7,-11.1,-0.3,0.5,0.668
0.202,6,-14.1,-10,1.2,2.7,0.668
0.203,10.6,-12.9,-8.6,3.2,4.7,0.668
0.204,17.1,-11.3,-7.3,5.2,6.3,0.668
0.205,24.3,-9.9,-6.4,6.8,7.2,0.668
0.206,30.6,-9.1,-5.9,7.5,7.6,0.668
0.207,34.401,-9.2,-5.7,7.4,7.7,0.668
0.208,35.501,-10,-5.4,6.5,8,0.668
0.209,34.901,-11.1,-4.8,5.3,8.2,0.668
0.21,34.201,-12,-3.8,4,8.3,0.68
0.211,34.801,-12.7,-2.6,3.1,8,0.68
0.212,36.601,-13.3,-1.9,2.8,7.3,0.68
0.213,38.801,-14,-1.8,2.9,6.7,0.68
0.214,39.901,-15,-2.5,3.5,6.5,0.68
0.215,39.001,-16.2,-3.7,4.2,7,0.68
0.216,36.701,-17.2,-4.8,4.8,8.1,0.68
0.217,34.401,-17.8,-5.4,5.1,9.3,0.68
0.218,33.801,-17.9,-5.4,5.1,10.2,0.68
0.219,35.701,-17.7,-4.9,4.8,10.6,0.68
0.22,39.301,-17.5,-4.3,4.6,10.6,0.72
0.221,42.901,-17.4,-4.2,4.7,10.8,0.72
0.222,45.001,-17.4,-4.4,5.3,11.5,0.72
0.223,44.701,-17.3,-4.7,6.3,12.5,0.72
0.224,42.601,-16.8,-4.7,7.2,13.6,0.72
0.225,39.901,-16,-4.2,7.9,14.5,0.72
0.226,37.901,-15.1,-3.1,8.1,14.9,0.72
0.227,37.001,-14.3,-1.8,8.1,14.9,0.72
0.228,37.001,-13.7,-0.6,8,14.8,0.72
0.229,37.501,-13.1,0.3,8,14.9,0.72
0.23,37.901,-12.4,0.8,7.9,15.3,0.579
0.231,38.501,-11.5,0.9,7.9,15.6,0.579
0.232,39.501,-10.5,0.7,7.7,15.6,0.579
0.233,40.901,-9.8,0.4,7.4,15.4,0.579
0.234,42.301,-9.9,0,6.9,14.9,0.579
0.235,43.401,-10.9,-0.6,6.4,14.5,0.579
0.236,43.501,-12.5,-1.2,6,14.4,0.579
0.237,42.701,-14.2,-1.8,5.9,14.5,0.579
0.238,41.201,-15.6,-2.6,6.1,14.7,0.579
0.239,39.701,-16.3,-3.4,6.4,14.8,0.579
0.24,38.601,-16.7,-4.1,6.6,14.6,0.822
0.241,38.301,-17,-4.7,6.6,14,0.822
0.242,38.801,-17.6,-5,6.3,13.1,0.822
0.243,39.801,-18.6,-5.1,5.5,12.1,0.822
0.244,41.101,-19.8,-5,4.6,11.2,0.822
0.245,42.101,-20.6,-4.8,3.8,10.7,0.822
0.246,42.601,-21,-4.5,3.3,10.5,0.822
0.247,42.401,-20.8,-4.2,3.3,10.7,0.822
0.248,41.501,-20.2,-3.8,3.7,11,0.822
0.249,40.401,-19.5,-3.5,4.3,11.2,0.822
0.25,39.701,-19.1,-3.1,4.9,11.2,0.579
0.251,39.501,-19,-3,5.3,11,0.579
0.252,39.801,-19.1,-3,5.4,10.6,0.579
0.253,40.001,-19.3,-2.9,5.3,10.3,0.579
0.254,39.501,-19.6,-2.7,5.1,10.2,0.579
0.255,38.201,-19.8,-2.3,4.8,10.3,0.579
0.256,36.401,-19.9,-1.7,4.4,10.5,0.579
0.257,35.301,-19.9,-1.2,4,10.8,0.579
0.258,35.801,-19.8,-1.1,3.9,11.1,0.579
0.259,38.001,-19.5,-1.4,4.3,11.4,0.579
0.26,41.201,-18.9,-2,5.1,11.8,0.668
0.261,43.901,-17.9,-2.3,6.4,12.2,0.668
0.262,44.701,-16.8,-2.1,7.7,12.7,0.668
0.263,43.301,-15.6,-1.3,8.7,13.2,0.668
0.264,40.501,-14.6,-0.2,9.1,13.4,0.668
0.265,38.001,-13.8,1,9,13.3,0.668
0.266,37.301,-13.3,1.7,8.5,12.8,0.668
0.267,38.701,-12.9,1.9,8.2,12.1,0.668
0.268,41.501,-12.2,1.6,8.3,11.5,0.668
0.269,43.901,-11.3,1.2,8.8,11.3,0.668
0.27,44.601,-10.1,0.8,9.4,11.4,0.68
0.271,43.001,-8.9,0.6,9.8,11.8,0.68
0.272,40.101,-8.2,0.4,9.9,11.9,0.68
0.273,37.201,-8,0.2,9.5,11.6,0.68
0.274,35.701,-8.2,-0.2,9.1,10.9,0.68
0.275,36.001,-8.3,-0.7,8.8,10.1,0.68
0.276,37.701,-7.8,-1,9,9.4,0.68
0.277,40.101,-6.5,-0.9,9.6,9.2,0.68
0.278,41.901,-4.5,-0.4,10.4,9.5,0.68
0.279,42.701,-2.3,0.4,11.4,9.9,0.68
0.28,42.401,-0.5,1,12.2,10.2,0.704
0.281,41.201,0.5,1.1,12.8,10.2,0.704
0.282,39.401,0.8,0.6,13,9.9,0.704
0.283,37.501,0.9,-0.3,12.8,9.5,0.704
0.284,35.701,1,-1.2,12.3,9.1,0.704
0.285,34.401,1.5,-1.8,11.5,8.8,0.704
0.286,34.001,2.2,-1.9,10.7,8.5,0.704
0.287,34.301,2.7,-1.7,9.8,8.2,0.704
0.288,35.401,2.8,-1.4,9,7.9,0.704
0.289,36.701,2.4,-1.5,8.2,7.6,0.704
0.29,37.701,1.9,-1.9,7.5,7.3,0.579
0.291,38.101,1.5,-2.3,7,7.1,0.579
0.292,37.901,1.5,-2.5,6.9,6.7,0.579
0.293,37.901,2.1,-2.6,7.3,6.2,0.579
0.294,38.401,3.1,-2.5,8.1,5.4,0.579
0.295,39.901,4.3,-2.7,9.1,4.6,0.579
0.296,41.901,5.5,-3.1,10.1,3.8,0.579
0.297,43.601,6.6,-3.7,10.8,3.3,0.579
0.298,44.001,7.4,-4.2,11,3,0.579
0.299,42.901,7.8,-4.4,10.8,3.1,0.579
0.3,40.701,7.9,-4.3,10.3,3.4,0.822
0.301,38.601,7.8,-3.9,9.6,3.5,0.822
0.302,37.601,7.5,-3.6,8.8,3.2,0.822
0.303,38.201,7.1,-3.5,7.9,2.5,0.822
0.304,39.501,6.6,-3.4,7.2,1.4,0.822
0.305,40.701,6,-3.3,6.7,0.4,0.822
0.306,40.801,5.3,-3,6.5,-0.2,0.822
0.307,39.901,4.7,-2.5,6.6,-0.4,0.822
0.308,39.001,4.1,-2.1,6.8,-0.4,0.822
0.309,39.101,3.9,-2.1,7.1,-0.6,0.822
0.31,40.301,4,-2.4,7.3,-1.2,0.579
0.311,42.101,4.3,-3,7.3,-2.2,0.579
0.312,43.201,4.6,-3.6,7.2,-3.1,0.579
0.313,42.901,4.8,-3.6,7.1,-3.3,0.579
0.314,41.401,4.8,-3,6.8,-2.8,0.579
0.315,40.101,4.9,-1.9,6.4,-1.8,0.579
0.316,40.501,5.3,-0.9,5.9,-1,0.579
0.317,43.101,5.7,-0.3,5.2,-0.9,0.579
0.318,47.001,6.1,-0.3,4.6,-1.4,0.579
0.319,50.401,6.2,-0.9,4.2,-2.1,0.579
0.32,51.701,6,-1.6,4,-2.4,0.668
0.321,50.201,5.8,-2,4,-2.1,0.668
0.322,47.201,5.6,-2,4,-1.1,0.668
0.323,44.601,5.8,-1.6,3.9,0,0.668
0.324,43.901,6.3,-1.1,3.7,0.9,0.668
0.325,45.401,6.7,-0.7,3.4,1.3,0.668
0.326,47.901,7,-0.6,3.1,1.3,0.668
0.327,49.701,7.1,-0.6,2.9,1.3,0.668
0.328,49.301,7,-0.6,2.9,1.3,0.668
0.329,46.901,7.2,-0.6,3.2,1.5,0.668
0.33,43.501,7.7,-0.5,3.5,1.8,0.68
0.331,41.201,8.6,-0.4,4.1,2,0.68
0.332,40.901,9.8,-0.3,4.6,1.9,0.68
0.333,42.901,11,0.1,5.1,1.7,0.68
0.334,45.901,11.9,0.6,5.2,1.3,0.68
0.335,48.401,12.4,1.5,5.1,0.8,0.68
0.336,49.501,12.4,2.4,4.6,0.4,0.68
0.337,49.101,12,3.2,4,0.3,0.68
0.338,48.001,11.3,3.7,3.5,0.4,0.68
0.339,47.201,10.5,3.8,3.3,0.5,0.68
0.34,47.501,9.7,3.5,3.2,0.2,0.692
0.341,48.901,9.1,2.8,3.1,-0.7,0.692
0.342,50.801,8.5,1.6,2.8,-2.1,0.692
0.343,52.401,7.8,-0.3,2.3,-3.7,0.692
0.344,52.901,6.9,-2.7,1.8,-4.9,0.692
0.345,52.001,6,-5.2,1.5,-5,0.692
0.346,50.101,5.4,-7.3,1.5,-4.2,0.692
0.347,47.501,5.3,-8.4,1.7,-2.8,0.692
0.348,45.401,5.8,-8.4,1.9,-1.7,0.692
0.349,44.501,6.6,-7.5,1.7,-1.4,0.692
0.35,45.301,7.3,-6.4,1,-2,0.579
0.351,47.701,7.6,-5.9,-0.2,-3.2,0.579
0.352,50.401,7.3,-6.3,-1.4,-4.3,0.579
0.353,52.301,6.6,-7.5,-2.1,-4.8,0.579
0.354,52.201,6,-9.1,-2.2,-4.7,0.579
0.355,50.301,5.7,-10.7,-1.6,-4.2,0.579
0.356,47.501,5.8,-11.8,-0.7,-3.9,0.579
0.357,45.301,6.1,-12.5,0,-4.1,0.579
0.358,44.701,6,-12.8,0.4,-4.7,0.579
0.359,45.901,5.3,-13,0.2,-5.5,0.579
0.36,47.701,4.1,-12.9,-0.2,-6,0.822
0.361,49.101,2.8,-12.8,-0.5,-6.1,0.822
0.362,49.001,1.9,-12.4,-0.5,-5.8,0.822
0.363,47.401,1.7,-11.8,-0.1,-5.5,0.822
0.364,45.401,2,-11.1,0.4,-5.4,0.822
0.365,43.901,2.5,-10.5,1,-5.5,0.822
0.366,43.901,2.8,-9.9,1.3,-5.7,0.822
0.367,45.601,3,-9.4,1.5,-5.7,0.822
0.368,48.401,3,-8.8,1.7,-5.5,0.822
0.369,51.001,3.2,-8.2,1.8,-5.1,0.822
0.37,52.301,3.6,-7.8,1.8,-4.7,0.579
0.371,51.701,4,-7.9,1.7,-4.5,0.579
0.372,49.601,4.1,-8.4,1.5,-4.5,0.579
0.373,47.301,3.8,-9.4,1.2,-4.8,0.579
0.374,46.101,3.3,-10.4,1,-5.4,0.579
0.375,46.501,2.9,-11.3,0.8,-6.2,0.579
0.376,48.001,3,-11.7,0.8,-7.1,0.579
0.377,49.201,3.5,-11.7,0.8,-7.9,0.579
0.378,48.901,4.4,-11.4,0.9,-8.2,0.579
0.379,47.201,5.2,-10.8,1.2,-8.2,0.579
0.38,45.701,5.9,-9.8,1.8,-7.9,0.668
0.381,45.801,6.5,-8.6,2.5,-7.6,0.668
0.382,48.001,7,-7.1,3.1,-7.7,0.668
0.383,51.001,7.5,-5.7,3.1,-8.1,0.668
0.384,52.601,7.9,-4.9,2.5,-8.6,0.668
0.385,51.501,8,-5,1.3,-8.8,0.668
0.386,48.201,7.7,-5.8,-0.1,-8.6,0.668
0.387,45.001,7.2,-7,-1.2,-8,0.668
0.388,44.401,6.7,-8.1,-1.6,-7.3,0.668
0.389,46.601,6.3,-8.7,-1.2,-7,0.668
0.39,49.801,6.2,-8.8,-0.4,-7.2,0.68
0.391,51.201,6.3,-8.5,0.6,-7.7,0.68
0.392,49.301,6.4,-8.2,1.4,-8.1,0.68
0.393,45.001,6.4,-7.7,1.8,-8.3,0.68
0.394,41.301,6.2,-7,1.7,-8,0.68
0.395,40.501,6,-6.2,1.2,-7.5,0.68
0.396,42.701,5.8,-5.2,0.5,-7,0.68
0.397,45.801,5.6,-4.4,-0.4,-6.6,0.68
0.398,47.001,5.7,-4,-1.2,-6.3,0.68
0.399,45.001,5.9,-4.1,-1.4,-6,0.68
0.4,41.201,6.3,-4.4,-0.9,-5.5,0.72
0.401,38.401,6.7,-4.4,0,-5,0.72
0.402,38.701,6.8,-4.1,1.2,-4.5,0.72
0.403,42.001,6.5,-3.5,2,-4.3,0.72
0.404,46.101,5.6,-2.9,2,-4.6,0.72
0.405,48.501,4.5,-2.7,1.5,-5.3,0.72
0.406,48.401,3.5,-3.4,0.8,-6.1,0.72
0.407,46.601,3.1,-4.7,0.3,-6.7,0.72
0.408,44.801,3.3,-6.6,0.4,-6.8,0.72
0.409,44.301,4.1,-8.4,0.9,-6.5,0.72
0.41,44.801,5,-9.6,1.5,-5.8,0.579
0.411,45.601,5.7,-10,1.8,-5.2,0.579
0.412,46.001,5.8,-9.7,1.6,-5.1,0.579
0.413,46.101,5.6,-9,1.1,-5.5,0.579
0.414,46.301,5.2,-8.4,0.8,-6.4,0.579
0.415,47.001,4.8,-8.3,0.9,-7.5,0.579
0.416,47.801,4.6,-9,1.3,-8.1,0.579
0.417,47.901,4.3,-10,1.8,-8.2,0.579
0.418,47.101,4,-10.9,2,-7.7,0.579
0.419,46.201,3.8,-11.3,1.9,-6.8,0.579
0.42,46.001,3.9,-10.8,1.4,-5.8,0.822
0.421,47.301,4.5,-9.6,0.8,-5.1,0.822
0.422,49.301,5.6,-8.2,0.5,-4.4,0.822
0.423,50.701,6.9,-7.4,0.6,-3.9,0.822
0.424,50.401,8,-7.5,1,-3.4,0.822
0.425,48.601,8.5,-8.5,1.6,-2.9,0.822
0.426,46.801,8.3,-10,2.1,-2.8,0.822
0.427,46.601,7.7,-11.3,2.3,-3.2,0.822
0.428,48.701,7.1,-11.7,2.2,-4,0.822
0.429,52.001,6.9,-11,1.8,-5.1,0.822
0.43,54.601,7,-9.7,1.1,-6,0.579
0.431,55.001,7.2,-8.1,0.3,-6.5,0.579
0.432,52.801,7.1,-7.1,-0.5,-6.4,0.579
0.433,49.301,6.4,-6.8,-1.1,-6.1,0.579
0.434,46.001,5.3,-7.1,-1.7,-5.8,0.579
0.435,44.301,4.1,-7.4,-1.9,-5.7,0.579
0.436,44.101,3.3,-7.5,-1.9,-5.7,0.579
0.437,44.601,3.2,-7,-1.6,-5.8,0.579
0.438,45.001,3.7,-6.1,-0.9,-5.5,0.579
0.439,44.801,4.6,-5.1,0.1,-4.7,0.579
0.44,44.201,5.6,-4.4,1.2,-3.6,0.668
0.441,43.701,6.3,-4.1,2.3,-2.6,0.668
0.442,43.701,6.7,-4.3,3.1,-1.9,0.668
0.443,44.201,6.7,-4.6,3.5,-1.8,0.668
0.444,44.901,6.7,-4.9,3.4,-2.1,0.668
0.445,45.301,6.8,-4.9,3.1,-2.8,0.668
0.446,45.101,7.1,-4.5,2.6,-3.3,0.668
0.447,44.301,7.8,-3.8,2.1,-3.7,0.668
0.448,43.101,8.6,-3,1.8,-3.6,0.668
0.449,42.001,9.5,-2.5,1.7,-3.3,0.668
0.45,41.501,10.2,-2.2,1.8,-2.6,0.68
0.451,42.001,10.7,-2.4,2.1,-1.8,0.68
0.452,43.301,11.1,-2.7,2.6,-0.9,0.68
0.453,44.701,11.6,-3,3.3,-0.1,0.68
0.454,45.501,12.2,-3,4.2,0.4,0.68
0.455,45.101,12.9,-2.7,5,0.5,0.68
0.456,43.901,13.3,-2.4,5.5,0.2,0.68
0.457,42.401,13,-2.2,5.3,-0.5,0.68
0.458,41.301,12.2,-2.3,4.4,-1.1,0.68
0.459,40.701,10.8,-2.7,3.1,-1.5,0.68
0.46,40.401,9.6,-2.8,1.8,-1.4,0.708
0.461,39.701,8.9,-2.4,1.1,-1.1,0.708
0.462,38.601,8.7,-1.2,1,-0.8,0.708
0.463,37.601,9.1,0.4,1.3,-0.7,0.708
0.464,37.201,9.4,1.8,1.5,-1.3,0.708
0.465,37.701,9.3,2.3,1.2,-2.3,0.708
0.466,38.801,8.6,1.7,0.3,-3.6,0.708
0.467,39.701,7.6,0,-0.8,-4.6,0.708
0.468,40.101,6.7,-2.2,-1.7,-5.1,0.708
0.469,40.301,6.2,-4.3,-2,-5,0.708
0.47,40.901,6.2,-6,-1.9,-4.6,0.579
0.471,42.501,6.4,-7.1,-1.5,-4.3,0.579
0.472,44.601,6.5,-7.8,-1.3,-4.5,0.579
0.473,46.201,6.3,-8.5,-1.5,-5.1,0.579
0.474,45.801,5.7,-9.2,-2.1,-5.9,0.579
0.475,43.101,4.9,-9.9,-3,-6.4,0.579
0.476,38.901,4.1,-10.3,-3.9,-6.4,0.579
0.477,34.701,3.5,-10.5,-4.7,-6,0.579
0.478,32.1,3.2,-10.2,-5.3,-5.5,0.579
0.479,31.8,3.2,-9.6,-5.5,-5.2,0.579
0.48,33.501,3.4,-8.8,-5.4,-5,0.822
0.481,36.401,3.6,-7.8,-4.8,-4.8,0.822
0.482,39.101,3.8,-6.9,-3.9,-4.5,0.822
0.483,40.701,3.8,-6,-3,-4,0.822
0.484,40.601,3.8,-5.5,-2.1,-3.4,0.822
0.485,38.601,3.7,-5.1,-1.4,-3.1,0.822
0.486,35.301,3.6,-4.9,-1,-3.3,0.822
0.487,31.9,3.5,-4.8,-0.9,-3.9,0.822
0.488,29.9,3.4,-4.6,-1.1,-4.7,0.822
0.489,30.3,3.1,-4.5,-1.6,-5.5,0.822
0.49,33.301,2.7,-4.4,-2.6,-6.1,0.579
0.491,37.901,2.3,-4.5,-3.7,-6.4,0.579
0.492,42.301,2.1,-4.7,-4.7,-6.4,0.579
0.493,44.801,2.6,-4.9,-5,-6.3,0.579
0.494,45.001,3.6,-4.9,-4.6,-5.8,0.579
0.495,43.601,4.8,-4.6,-3.5,-5.1,0.579
0.496,42.101,5.9,-4,-2.4,-4.1,0.579
0.497,41.501,6.4,-3.2,-1.6,-3.1,0.579
0.498,42.101,6.1,-2.4,-1.5,-2.2,0.579
0.499,43.301,5.4,-1.8,-1.9,-1.9,0.579
0.5,44.201,4.7,-1.4,-2.3,-2.2,0.668
0.501,44.601,4.3,-1.2,-2.6,-3,0.668
0.502,44.901,4.2,-1,-2.7,-3.8,0.668
0.503,45.601,4.4,-1,-2.8,-4.4,0.668
0.504,46.701,4.3,-1,-3.2,-4.6,0.668
0.505,47.701,3.9,-1.2,-3.7,-4.3,0.668
0.506,47.501,3.4,-1.7,-4.2,-3.9,0.668
0.507,45.901,2.9,-2.2,-4.2,-3.6,0.668
0.508,43.501,2.9,-2.6,-3.7,-3.5,0.668
0.509,41.701,3.4,-2.6,-2.7,-3.6,0.668
0.51,41.601,4.2,-2.3,-1.9,-3.8,0.68
0.511,43.501,5,-1.8,-1.6,-3.8,0.68
0.512,45.701,5.6,-1.4,-1.8,-3.6,0.68
0.513,46.501,6,-1.4,-2.4,-3.1,0.68
0.514,44.701,6.1,-1.8,-2.8,-2.6,0.68
0.515,40.701,6.1,-2.2,-2.7,-2.2,0.68
0.516,36.501,6.1,-2.2,-2.1,-2,0.68
0.517,34.301,6.2,-1.7,-1.4,-1.8,0.68
0.518,34.901,6.4,-0.6,-1,-1.6,0.68
0.519,37.401,6.4,0.6,-1.2,-1.3,0.68
0.52,39.701,6.3,1.1,-2,-1.2,0.696
0.521,40.101,5.7,0.8,-3.2,-1.2,0.696
0.522,37.901,4.5,-0.6,-4.7,-1.7,0.696
0.523,34.101,3,-2.3,-6.1,-2.5,0.696
0.524,30.5,1.4,-3.7,-7.3,-3.7,0.696
0.525,28.8,0.3,-4.2,-8.2,-4.8,0.696
0.526,29.5,0.1,-3.9,-8.4,-5.5,0.696
0.527,32.1,0.6,-3,-8,-5.8,0.696
0.528,35.201,1.6,-2.4,-7.3,-5.6,0.696
0.529,37.501,2.6,-2.5,-6.4,-5.2,0.696
0.53,38.101,3.2,-3.3,-5.8,-4.8,0.579
0.531,36.901,3.4,-4.4,-5.6,-4.5,0.579
0.532,34.401,3.4,-5.2,-5.5,-4.4,0.579
0.533,31.8,3.5,-5.5,-5.4,-4.3,0.579
0.534,30,3.7,-5.3,-5.1,-4.4,0.579
0.535,29.8,3.8,-5.1,-4.5,-4.4,0.579
0.536,30.6,3.5,-5.5,-4,-4.6,0.579
0.537,31.4,2.8,-6.3,-3.9,-4.7,0.579
0.538,30.9,1.9,-7.4,-4.1,-4.8,0.579
0.539,28.7,1.2,-7.9,-4.5,-4.6,0.579
0.54,25.4,1.1,-7.4,-4.7,-4,0.822
0.541,22.9,1.6,-5.8,-4.4,-3,0.822
0.542,22.7,2.6,-3.6,-3.7,-1.9,0.822
0.543,25.2,3.6,-1.3,-2.9,-1,0.822
0.544,29,4.5,0.5,-2.2,-0.3,0.822
0.545,32,5.1,1.4,-1.8,0.1,0.822
0.546,32.5,5.7,1.5,-1.5,0.4,0.822
0.547,30.3,6.4,1.2,-1.1,0.9,0.822
0.548,26.6,7.3,0.9,-0.5,1.7,0.822
0.549,23.6,8.5,1,0,2.5,0.822
0.55,22.6,9.6,1.3,0.1,2.9,0.579
0.551,24,10.2,1.7,-0.4,2.4,0.579
0.552,26.5,10.1,1.8,-1.5,1.1,0.579
0.553,28.5,9.1,1.5,-2.7,-0.8,0.579
0.554,28.6,7.5,1,-3.4,-2.5,0.579
0.555,26.7,5.9,0.4,-3.5,-3.4,0.579
0.556,24,4.6,0.1,-3.1,-3.3,0.579
0.557,21.6,4,0.1,-2.6,-2.5,0.579
0.558,20.8,3.9,0.3,-2.4,-1.5,0.579
0.559,21.5,4.1,0.2,-2.7,-0.7,0.579
0.56,23.2,4,-0.4,-3.1,-0.6,0.668
0.561,24.8,3.5,-1.4,-3.4,-1.1,0.668
0.562,25.8,2.6,-2.8,-3.2,-2,0.668
0.563,25.9,1.7,-4.2,-2.8,-2.9,0.668
0.564,25.6,1.1,-5.4,-2.5,-3.6,0.668
0.565,25.3,0.8,-6.6,-2.6,-4.1,0.668
0.566,25,0.6,-7.6,-3.2,-4.3,0.668
0.567,24.4,0.3,-8.4,-4.1,-4.4,0.668
0.568,23.1,-0.4,-9,-5,-4.3,0.668
0.569,21.2,-1.1,-9,-5.5,-4.1,0.668
0.57,19.5,-1.8,-8.6,-5.7,-3.9,0.68
0.571,19.1,-1.9,-8,-5.6,-3.7,0.68
0.572,20.4,-1.6,-7.4,-5.5,-3.7,0.68
0.573,23,-1,-7.1,-5.6,-3.7,0.68
0.574,25.3,-0.4,-7.4,-5.8,-3.9,0.68
0.575,25.8,-0.1,-8.1,-6.3,-4.1,0.68
0.576,24,-0.3,-9,-6.9,-4.3,0.68
0.577,20.6,-0.9,-9.9,-7.7,-4.3,0.68
0.578,17.5,-1.7,-10.5,-8.4,-4.3,0.68
0.579,16.2,-2.4,-10.8,-9,-4.1,0.68
0.58,17.1,-2.8,-10.7,-9.2,-3.7,0.72
0.581,19.3,-2.9,-10.1,-8.8,-3.1,0.72
0.582,21.3,-2.6,-9.3,-8,-2.6,0.72
0.583,22.1,-2,-8.5,-6.9,-2.2,0.72
0.584,21.4,-1.2,-8,-6.1,-2.3,0.72
0.585,20.3,-0.7,-7.9,-5.7,-2.9,0.72
0.586,19.5,-0.7,-8.1,-5.9,-3.8,0.72
0.587,19.6,-1,-8.2,-6.4,-4.8,0.72
0.588,19.9,-1.5,-8.2,-7.1,-5.5,0.72
0.589,19.8,-1.9,-7.9,-7.5,-5.7,0.72
0.59,18.6,-1.8,-7.4,-7.4,-5.3,0.579
0.591,16.5,-1.4,-7,-7,-4.6,0.579
0.592,14.3,-0.7,-6.9,-6.3,-3.8,0.579
0.593,13,-0.2,-6.9,-5.6,-3.2,0.579
0.594,12.8,0,-7,-5.2,-2.9,0.579
0.595,13.5,-0.1,-6.9,-5.1,-2.7,0.579
0.596,14.3,-0.2,-6.6,-5.4,-2.7,0.579
0.597,14.6,-0.2,-6.2,-5.8,-2.6,0.579
0.598,14.4,0.1,-5.8,-6,-2.5,0.579
0.599,13.8,0.4,-5.6,-5.9,-2.2,0.579
0.6,13.2,0.8,-5.4,-5.3,-1.9,0.822
0.601,12.9,1,-5.2,-4.6,-1.7,0.822
0.602,12.9,1.1,-5.1,-3.9,-1.5,0.822
0.603,13.2,1.3,-5.1,-3.5,-1.4,0.822
0.604,13.6,1.6,-5.3,-3.5,-1.4,0.822
0.605,13.9,2,-5.8,-3.8,-1.5,0.822
0.606,14,2.2,-6.4,-4.2,-1.5,0.822
0.607,14,2.4,-6.8,-4.5,-1.5,0.822
0.608,14.1,2.5,-6.8,-4.6,-1.5,0.822
0.609,14.6,2.5,-6.4,-4.4,-1.5,0.822
0.61,15.2,2.6,-6.1,-4.3,-1.7,0.579
0.611,15.5,2.8,-6,-4.1,-1.9,0.579
0.612,14.9,2.9,-6.5,-4.1,-2.1,0.579
0.613,13.3,3,-7.2,-4,-2,0.579
0.614,11.1,3,-7.7,-3.9,-1.5,0.579
0.615,9.4,3.1,-7.8,-3.6,-0.9,0.579
0.616,8.9,3.4,-7.3,-3.3,-0.4,0.579
0.617,10.2,3.7,-6.6,-2.9,-0.3,0.579
0.618,12.5,4,-6.1,-2.3,-0.7,0.579
0.619,14.5,4.1,-6.1,-1.7,-1.4,0.579
0.62,15,3.7,-6.2,-1.2,-2,0.668
0.621,13.8,3,-6.3,-0.9,-2.2,0.668
0.622,11.6,2.2,-6.1,-1,-2,0.668
0.623,9.9,1.7,-5.5,-1.6,-1.5,0.668
0.624,9.6,1.6,-4.8,-2.3,-1.1,0.668
0.625,10.7,2,-4.1,-3,-0.9,0.668
0.626,12.3,2.8,-3.6,-3.2,-1.2,0.668
0.627,13.5,3.6,-3.3,-2.9,-1.8,0.668
0.628,13.8,4.1,-3.1,-2.6,-2.8,0.668
0.629,13.3,4.1,-3.1,-2.7,-4,0.668
0.63,12.6,3.5,-3.7,-3.4,-5.3,0.68
0.631,11.9,2.4,-4.9,-4.9,-6.6,0.68
0.632,11.3,1.1,-6.6,-6.7,-7.7,0.68
0.633,10.6,0,-8.4,-8.2,-8.4,0.68
0.634,9.6,-0.5,-9.5,-8.7,-8.4,0.68
0.635,9.1,-0.3,-9.6,-8.3,-7.8,0.68
0.636,9.6,0.5,-8.6,-7,-6.8,0.68
0.637,11.8,1.5,-6.8,-5.5,-5.7,0.68
0.638,15.6,2.4,-5,-4.4,-4.7,0.68
0.639,20.8,3,-3.6,-3.7,-3.8,0.68
0.64,26.5,3.5,-2.5,-3.4,-2.7,0.708
0.641,32.5,4.1,-1.5,-2.7,-0.8,0.708
0.642,38.601,5.2,0.1,-0.9,2.5,0.708
0.643,45.001,7.1,2.9,2.4,7.5,0.708
0.644,51.901,10,6.9,6.9,13.9,0.708
0.645,59.601,13.5,11.7,11.9,20.8,0.708
0.646,67.801,17.3,16.3,16.2,26.6,0.708
0.647,76.301,20.5,19.6,18.9,30.1,0.708
0.648,84.101,22.5,20.7,19.3,30.7,0.708
0.649,90.301,22.6,19.7,17.8,28.6,0.708
0.65,93.501,20.9,17,15.1,24.9,0.579
0.651,93.001,18,13.6,12,20.8,0.579
0.652,88.601,14.7,10.5,9.2,16.8,0.579
0.653,81.101,11.9,8.1,6.9,13.2,0.579
0.654,71.401,10.2,6.3,4.8,9.5,0.579
0.655,60.301,9.3,4.6,2.6,5.3,0.579
0.656,48.301,8.5,2.7,0,0.6,0.579
0.657,35.501,7.2,0.4,-2.8,-4.4,0.579
0.658,21.8,5.1,-2.1,-5.8,-9.1,0.579
0.659,7.6,2.3,-4.4,-8.5,-13,0.579
0.66,-6.2,-0.5,-6.3,-10.7,-15.8,0.822
0.661,-18.8,-2.6,-7.5,-12,-17.3,0.822
0.662,-29.1,-3.6,-8,-12.2,-17.6,0.822
0.663,-36.501,-3.3,-7.8,-11.4,-16.5,0.822
0.664,-40.501,-2.2,-6.8,-9.6,-14.3,0.822
0.665,-40.801,-0.5,-5.2,-7.1,-11.3,0.822
0.666,-38.001,1.3,-3.1,-4.4,-8.3,0.822
0.667,-32.801,3.3,-1,-1.9,-5.7,0.822
0.668,-26.6,5.3,0.9,0.1,-3.7,0.822
0.669,-20.6,7.2,2.3,1.6,-2.3,0.822
0.67,-15.6,8.9,3.1,2.7,-1.1,0.579
0.671,-11.5,10,3.5,3.5,0,0.579
0.672,-7.6,10.4,3.5,3.8,0.9,0.579
0.673,-3.3,10.1,3.1,3.8,1.3,0.579
0.674,1.4,9.2,2.3,3.4,1,0.579
0.675,5.7,8.4,1.3,2.8,0.2,0.579
0.676,8.6,8.2,0.4,2.5,-0.6,0.579
0.677,9.5,9,0.1,3,-0.7,0.579
0.678,9.1,10.8,0.7,4.6,0.2,0.579
0.679,8.5,13.3,2.2,7,2,0.579
0.68,9,15.9,4.2,9.9,4.1,0.5
0.681,10.6,17.9,6,12.5,5.9,0.5
0.682,12.6,19,7.5,14.6,7.3,0.5
0.683,13.8,19.3,8.6,16.1,8.7,0.5
0.684,13.7,19.2,9.6,17.2,10.4,0.5
0.685,12.4,19,10.7,18.1,12.7,0.5
0.686,10.7,18.7,11.8,19,15.2,0.5
0.687,9.2,18.1,12.8,19.8,17.7,0.5
0.688,8.2,16.7,13.1,20.4,19.8,0.5
0.689,7.2,14.1,12.7,20.7,21.7,0.5
0.69,5.8,10.3,11.7,20.8,23.6,0.5
0.691,4.1,5.6,10.6,20.9,26.1,0.5
0.692,2.6,0.8,9.9,21.1,29.2,0.5
0.693,2.3,-3.9,9.7,21.5,32.4,0.5
0.694,3.7,-8.3,9.7,21.9,35.301,0.5
0.695,6.1,-12.4,9.6,21.9,37.601,0.5
0.696,8.6,-16.6,8.9,21.5,39.301,0.5
0.697,9.9,-21,7.7,20.4,40.801,0.5
0.698,9.3,-25.6,6.2,19,42.501,0.5
0.699,7.3,-30.4,4.5,17.2,44.101,0.5
0.7,4.8,-35.201,2.7,15.3,45.401,0.5
0.701,3,-40.101,0.6,13.2,45.801,0.5
0.702,2.5,-44.801,-2.2,10.9,44.901,0.5
0.703,3.5,-49.501,-5.5,8,43.101,0.5
0.704,5.2,-53.801,-9.1,4.8,40.601,0.5
0.705,6.9,-57.501,-12.3,1.5,38.201,0.5
0.706,8,-60.301,-14.6,-1.6,36.401,0.5
0.707,8.2,-62.001,-15.6,-3.8,35.201,0.5
0.708,7.4,-62.601,-15.6,-4.8,34.701,0.5
0.709,6,-62.201,-14.9,-4.6,34.301,0.5
0.71,4.5,-61.101,-14.2,-3.5,33.801,0.5
0.711,3.4,-59.701,-14,-2.1,32.6,0.5
0.712,3.2,-58.001,-14.4,-1.2,30.4,0.5
0.713,3.8,-56.101,-15.3,-1.3,27.1,0.5
0.714,4.9,-53.801,-16.4,-2.6,22.9,0.5
0.715,5.9,-51.001,-17.2,-4.7,18.1,0.5
0.716,6.2,-47.301,-17.6,-7.2,13.2,0.5
0.717,5.6,-42.701,-17.7,-9.6,8.1,0.5
0.718,4.7,-37.301,-17.5,-11.8,2.9,0.5
0.719,4,-31.5,-17.3,-13.7,-2.7,0.5
0.72,4.2,-25.6,-17.2,-15.5,-8.4,0.5
0.721,5.2,-20.2,-17.3,-17.2,-13.8,0.5
0.722,6.7,-15.6,-17.5,-18.7,-18.2,0.5
0.723,8.3,-12.1,-17.5,-19.7,-20.8,0.5
0.724,9.7,-9.7,-17.4,-20,-21.7,0.5
0.725,11,-8,-17.1,-19.8,-21.4,0.5
0.726,12.5,-6.8,-16.6,-19.2,-20.6,0.5
0.727,14.2,-5.8,-16.2,-18.7,-20.5,0.5
0.728,15.3,-4.8,-16,-18.6,-21.2,0.5
0.729,15.2,-3.8,-16.1,-19,-22.7,0.5
0.73,13.5,-3,-16.7,-19.8,-24.5,0.5
0.731,11,-2.3,-17.6,-20.7,-26,0.5
0.732,9.1,-2,-18.5,-21.4,-27,0.5
0.733,9,-1.9,-19.2,-21.9,-27.4,0.5
0.734,11.2,-2.2,-19.6,-21.9,-27.5,0.5
0.735,14.6,-2.4,-19.5,-21.7,-27.4,0.5
0.736,17.5,-2.6,-19.1,-21.3,-27.2,0.5
0.737,18.3,-2.6,-18.8,-20.7,-27.1,0.5
0.738,16.9,-2.3,-18.6,-20.1,-26.8,0.5
0.739,14.1,-1.8,-18.6,-19.2,-26.3,0.5
0.74,11.3,-1.1,-18.6,-18.1,-25.3,0.5
0.741,9.8,-0.6,-18.2,-16.5,-23.9,0.5
0.742,9.4,-0.1,-17.4,-14.6,-22,0.5
0.743,9.7,0.2,-16.2,-12.6,-20.1,0.5
0.744,10,0.4,-14.8,-10.8,-18.5,0.5
0.745,10,0.7,-13.5,-9.4,-17.4,0.5
0.746,9.9,1.1,-12.3,-8.5,-16.6,0.5
0.747,10,1.4,-11.3,-7.8,-15.9,0.5
0.748,9.9,1.7,-10.4,-7.1,-15,0.5
0.749,9.4,1.9,-9.4,-6.2,-13.7,0.5
0.75,7.9,1.9,-8.7,-5.2,-12.1,0.5
0.751,5.6,1.9,-8.3,-4.3,-10.3,0.5
0.752,3.5,2.1,-8.4,-3.6,-8.6,0.5
0.753,2.4,2.6,-8.8,-3,-7,0.5
0.754,2.5,3.4,-9.1,-2.3,-5.6,0.5
0.755,3.3,4.3,-9,-1.4,-4.4,0.5
0.756,3.7,5.1,-8.5,-0.2,-3.5,0.5
0.757,3.2,5.5,-7.7,0.9,-2.9,0.5
0.758,1.9,5.5,-7.1,1.3,-2.8,0.5
0.759,0.9,5.1,-7,0.7,-3.1,0.5
0.76,1.6,4.6,-7.5,-0.9,-3.7,0.5
0.761,4.2,4.1,-8.3,-3,-4.4,0.5
0.762,8,3.6,-9.1,-5.1,-5,0.5
0.763,11.3,3.1,-9.5,-6.6,-5.4,0.5
0.764,12.7,2.7,-9.5,-7.2,-5.5,0.5
0.765,11.6,2.4,-9.3,-7.1,-5.4,0.5
0.766,8.8,2.4,-9,-6.5,-5.1,0.5
0.767,5.7,2.6,-8.7,-5.6,-4.6,0.5
0.768,3.9,3,-8.6,-4.6,-4.2,0.5
0.769,4,3.4,-8.5,-3.7,-4,0.5
0.77,5.6,3.5,-8.6,-3,-4,0.5
0.771,7.7,3.3,-8.9,-2.7,-3.9,0.5
0.772,9.2,2.8,-9.4,-2.6,-3.7,0.5
0.773,9.3,2.3,-10.1,-2.7,-3,0.5
0.774,8.3,2.1,-10.5,-2.7,-2,0.5
0.775,7,2.5,-10.4,-2.4,-1,0.5
0.776,6.3,3.3,-9.5,-1.8,-0.1,0.5
0.777,6.8,4.6,-8,-0.7,0.4,0.5
0.778,8.3,6,-6.3,0.4,0.7,0.5
0.779,10,7.2,-4.9,1.4,1,0.5
0.78,11.1,8.2,-3.9,2.1,1.4,0.5
0.781,11.2,8.8,-3.4,2.6,2.1,0.5
0.782,10.3,9,-3.2,2.9,2.7,0.5
0.783,9.3,9,-2.9,2.9,3.1,0.5
0.784,8.6,8.7,-2.5,2.7,3,0.5
0.785,8.4,8.2,-2,2.1,2.3,0.5
0.786,8.2,7.6,-1.6,1.2,1.3,0.5
0.787,7.3,6.7,-1.7,0,0,0.5
0.788,5.5,5.7,-2.5,-1,-1.4,0.5
0.789,3.3,4.5,-3.7,-1.6,-2.6,0.5
0.79,1.8,3.2,-5.3,-1.7,-3.5,0.5
0.791,1.5,1.9,-6.9,-1.5,-4,0.5
0.792,2.6,0.8,-8,-1.2,-4.1,0.5
0.793,4,0.2,-8.6,-0.8,-3.7,0.5
0.794,4.9,0.2,-8.5,-0.6,-2.8,0.5
0.795,4.6,0.7,-7.9,-0.3,-1.9,0.5
0.796,4,1.4,-7.1,0.1,-1.2,0.5
0.797,4.2,1.9,-6.5,0.4,-1,0.5
0.798,6,1.9,-6.3,0.8,-1.3,0.5
0.799,8.9,1.5,-6.6,1,-2,0.5
0.8,11.7,0.9,-7.1,1,-2.7,0.5
0.801,12.5,0.5,-7.6,1,-3.2,0.5
0.802,10.9,0.4,-8,0.8,-3.5,0.5
0.803,7.4,0.7,-8.3,0.5,-3.6,0.5
0.804,3.9,1,-8.4,0.1,-3.6,0.5
0.805,2.4,0.9,-8.5,-0.4,-3.5,0.5
0.806,3.3,0.5,-8.5,-1.1,-3.4,0.5
0.807,6.2,-0.2,-8.3,-1.7,-2.9,0.5
0.808,9.6,-0.6,-7.8,-2,-2.1,0.5
0.809,11.9,-0.4,-7,-1.9,-0.9,0.5
0.81,12.4,0.5,-6.1,-1.4,0.3,0.5
0.811,11.6,1.8,-5.2,-0.7,1.1,0.5
0.812,10.1,3.1,-4.5,-0.1,1.2,0.5
0.813,8.7,3.8,-3.8,0,0.8,0.5
0.814,7.8,3.9,-3.2,-0.4,0,0.5
0.815,7.5,3.4,-2.7,-1,-0.6,0.5
0.816,7.6,2.7,-2.4,-1.6,-0.9,0.5
0.817,8,2.1,-2.4,-1.9,-0.6,0.5
0.818,8.7,1.9,-2.6,-1.8,-0.2,0.5
0.819,9.4,1.9,-2.9,-1.2,0.4,0.5
0.82,9.8,2.1,-3.3,-0.5,0.7,0.5
0.821,9.6,2.3,-3.5,0.1,0.8,0.5
0.822,8.4,2.3,-3.8,0.4,0.6,0.5
0.823,6.3,2.1,-4.2,0.5,0.4,0.5
0.824,3.8,1.7,-4.7,0.4,0.2,0.5
0.825,1.6,1.4,-5.4,0.4,0.2,0.5
0.826,0.2,1.4,-5.8,0.4,0.5,0.5
0.827,0,1.6,-5.8,0.5,0.8,0.5
0.828,0.8,2,-5.4,0.6,1,0.5
0.829,2.2,2,-4.8,0.6,0.9,0.5
0.83,3.7,1.5,-4.4,0.5,0.6,0.5
0.831,5,0.3,-4.6,0.2,0.1,0.5
0.832,5.7,-1.1,-5.3,-0.3,-0.4,0.5
0.833,5.6,-2.4,-6.2,-1.1,-0.7,0.5
0.834,4.5,-2.8,-6.7,-1.9,-0.8,0.5
0.835,2.8,-2.4,-6.5,-2.4,-0.8,0.5
0.836,1,-1.3,-5.7,-2.5,-0.7,0.5
0.837,0.3,-0.1,-4.8,-2,-0.8,0.5
0.838,1.2,0.4,-4.4,-1.2,-1.1,0.5
0.839,3.6,-0.1,-5,-0.6,-1.8,0.5
0.84,6.2,-1.5,-6.3,-0.5,-2.5,0.5
0.841,7.4,-3.1,-7.7,-0.9,-3,0.5
0.842,6.3,-4.4,-8.6,-1.5,-3.1,0.5
0.843,3.1,-4.9,-8.4,-2,-2.6,0.5
0.844,-0.7,-4.8,-7.4,-2,-1.7,0.5
0.845,-3.3,-4.4,-6.3,-1.8,-0.9,0.5
0.846,-3.6,-4.1,-5.6,-1.8,-0.6,0.5
0.847,-2.2,-4.3,-5.7,-2.1,-0.8,0.5
0.848,-0.6,-4.9,-6.4,-2.7,-1.5,0.5
0.849,-0.4,-5.7,-7,-3.3,-2,0.5
0.85,-2.1,-6.3,-6.8,-3.2,-1.7,0.5
0.851,-4.9,-6.5,-5.6,-2.2,-0.5,0.5
0.852,-7.3,-6.1,-3.7,-0.8,1.1,0.5
0.853,-8.3,-5.4,-1.9,0.4,2.5,0.5
0.854,-7.7,-4.7,-0.9,0.9,3.1,0.5
0.855,-6.5,-4.3,-0.9,0.4,2.8,0.5
0.856,-5.5,-4.4,-1.8,-0.7,2.1,0.5
0.857,-4.9,-5.1,-2.8,-1.6,1.6,0.5
0.858,-4.3,-6.2,-3.3,-1.9,1.8,0.5
0.859,-3.1,-7,-2.9,-1.4,2.5,0.5
0.86,-1.2,-7.4,-1.9,-0.5,3.6,0.5
0.861,0.6,-7.1,-0.8,0.2,4.5,0.5
0.862,1.5,-6.4,-0.4,0.4,4.9,0.5
0.863,1,-5.7,-1,0.2,5.1,0.5
0.864,-0.6,-5.6,-2.4,-0.3,5.4,0.5
0.865,-2.3,-6.2,-4.1,-0.6,5.7,0.5
0.866,-3.4,-7.3,-5.4,-0.8,6,0.5
0.867,-3.5,-8.6,-5.8,-0.9,6.1,0.5
0.868,-3.4,-9.6,-5.3,-1.1,5.8,0.5
0.869,-3.9,-9.9,-4.3,-1.5,5.3,0.5
0.87,-5.5,-9.8,-3.1,-1.7,4.8,0.5
0.871,-7.9,-9.3,-2.3,-1.4,4.7,0.5
0.872,-10,-8.8,-2,-0.6,5,0.5
0.873,-10.9,-8.6,-2.1,0.8,5.5,0.5
0.874,-10.2,-8.8,-2.5,2.3,5.8,0.5
0.875,-8.5,-9.1,-3,3.4,6,0.5
0.876,-6.8,-9.3,-3.4,3.9,6.2,0.5
0.877,-6.2,-9.4,-3.6,3.9,6.6,0.5
0.878,-6.7,-9.1,-3.6,3.7,7.4,0.5
0.879,-7.8,-8.7,-3.4,3.6,8.2,0.5
0.88,-8.3,-8.4,-3.2,3.6,8.9,0.5
0.881,-7.8,-8.5,-3,3.5,8.9,0.5
0.882,-6.4,-9.2,-3,2.9,8.4,0.5
0.883,-5.2,-10.4,-3.3,2,7.7,0.5
0.884,-5.4,-11.7,-3.7,0.8,7.1,0.5
0.885,-7.3,-12.5,-3.9,0.1,7.1,0.5
0.886,-10.1,-12.5,-3.6,0.2,8,0.5
0.887,-12.4,-11.7,-2.6,1.4,9.4,0.5
0.888,-13,-10.4,-1.1,3.3,11.1,0.5
0.889,-11.7,-9,0.7,5.5,12.6,0.5
0.89,-9.2,-8,2.2,7.1,13.7,0.5
0.891,-6.8,-7.5,2.9,7.9,14.5,0.5
0.892,-5.6,-7.6,2.6,7.7,15,0.5
0.893,-5.6,-7.8,1.7,7,15.2,0.5
0.894,-6.3,-8.1,0.4,6.1,15.2,0.5
0.895,-6.8,-8.4,-0.8,5.1,14.8,0.5
0.896,-6.8,-9,-1.8,4.1,13.8,0.5
0.897,-6.4,-10.1,-2.7,2.8,12.4,0.5
0.898,-6.1,-11.6,-3.5,1.4,11,0.5
0.899,-6.3,-13.5,-4.3,0,10.1,0.5
0.9,-6.9,-15.4,-5.1,-0.9,9.9,0.5
0.901,-7.3,-16.7,-5.4,-1.2,10.6,0.5
0.902,-7.1,-17.4,-5.2,-0.7,11.4,0.5
0.903,-6.3,-17.5,-4.6,0.1,12.1,0.5
0.904,-5.2,-17.3,-3.7,1.1,12.1,0.5
0.905,-4.7,-17.2,-3,1.9,11.7,0.5
0.906,-5,-17.1,-2.7,2.6,11.4,0.5
0.907,-5.5,-17.1,-2.9,3.3,11.4,0.5
0.908,-5.4,-17.2,-3.4,3.9,11.8,0.5
0.909,-4.1,-17.3,-3.9,4.2,12.2,0.5
0.91,-1.6,-17.6,-4.2,3.8,12.3,0.5
0.911,0.9,-18.3,-4.5,2.9,11.7,0.5
0.912,2,-19.2,-4.7,1.5,10.9,0.5
0.913,0.8,-20.2,-4.8,0.4,10.4,0.5
0.914,-2,-20.8,-4.9,0.1,10.6,0.5
0.915,-4.6,-20.8,-4.8,0.9,11.5,0.5
0.916,-5.4,-20.5,-4.6,2.4,12.6,0.5
0.917,-3.8,-20.3,-4.4,4,13.4,0.5
0.918,-0.9,-20.4,-4.4,5.2,13.6,0.5
0.919,1.3,-21.1,-4.7,5.7,13.3,0.5
0.92,1.2,-22,-5.4,5.5,13.1,0.5
0.921,-1.2,-22.5,-6.3,5.1,13.1,0.5
0.922,-4.1,-22.4,-7,4.8,13.5,0.5
0.923,-5.6,-21.7,-7.6,4.7,13.8,0.5
0.924,-4.3,-20.7,-8,4.5,13.6,0.5
0.925,-0.9,-20,-8.3,3.9,12.7,0.5
0.926,2.6,-20,-8.7,3,11.6,0.5
0.927,4,-20.5,-9,1.8,10.9,0.5
0.928,2.3,-21.2,-8.8,0.7,10.9,0.5
0.929,-1.8,-21.7,-7.8,0.3,11.9,0.5
0.93,-6.1,-21.7,-6,0.5,13.3,0.5
0.931,-8.7,-21.3,-3.6,1.3,14.4,0.5
0.932,-8.6,-20.9,-1.3,2,14.8,0.5
0.933,-6.5,-20.7,0.4,2.2,14.5,0.5
0.934,-4.1,-21,1,1.7,13.7,0.5
0.935,-3.1,-21.8,0.6,0.8,13,0.5
0.936,-4.3,-22.7,-0.3,-0.1,12.8,0.5
0.937,-6.9,-23.4,-1,-0.5,13.1,0.5
0.938,-8.9,-23.5,-1.3,-0.3,13.7,0.5
0.939,-8.9,-22.9,-1.2,0.3,14.1,0.5
0.94,-6.4,-22.1,-1.2,1.2,14.1,0.5
0.941,-2.6,-21.5,-1.5,1.7,13.8,0.5
0.942,0.6,-21.4,-2.2,1.9,13.4,0.5
0.943,1.5,-21.7,-3,1.9,13.3,0.5
0.944,-0.1,-22.3,-3.3,1.7,13.4,0.5
0.945,-2.9,-22.7,-3.1,1.8,13.7,0.5
0.946,-4.9,-22.6,-2.2,2,14,0.5
0.947,-4.6,-21.9,-1.3,2.3,14,0.5
0.948,-2.2,-20.9,-0.8,2.4,13.8,0.5
0.949,0.9,-19.9,-0.8,2.3,13.4,0.5
0.95,2.8,-19,-1.2,1.9,13,0.5
0.951,2.4,-18.2,-1.6,1.7,12.9,0.5
0.952,0.4,-17.5,-1.7,1.8,13,0.5
0.953,-1.7,-16.9,-1.3,2.5,13.2,0.5
0.954,-2.4,-16.4,-0.8,3.4,13.6,0.5
0.955,-0.9,-16.3,-0.5,4.3,13.8,0.5
0.956,1.9,-16.3,-0.5,4.8,13.7,0.5
0.957,4.6,-16.3,-0.8,4.9,13.2,0.5
0.958,6.1,-15.9,-1.1,4.7,12.5,0.5
0.959,6.2,-14.8,-1.1,4.6,11.6,0.5
0.96,5.5,-13.4,-1,4.5,10.7,0.5
0.961,4.6,-12,-0.8,4.6,10.1,0.5
0.962,4,-10.9,-0.7,4.6,9.8,0.5
0.963,3.4,-10.5,-0.8,4.4,9.8,0.5
0.964,2.1,-10.4,-0.7,4.1,10,0.5
0.965,0.1,-10.3,-0.4,3.8,10.2,0.5
0.966,-2.4,-9.7,0.2,3.7,10.1,0.5
0.967,-4.4,-8.7,1.1,3.7,9.8,0.5
0.968,-5,-7.4,1.7,3.9,9.3,0.5
0.969,-3.8,-6.4,1.9,4,8.9,0.5
0.97,-1.2,-5.9,1.5,4,8.7,0.5
0.971,1.8,-6,0.9,4,8.9,0.5
0.972,4.2,-6.4,0.4,4.1,9.4,0.5
0.973,5.1,-6.5,0.4,4.5,9.8,0.5
0.974,4.3,-6.1,1.1,5,10,0.5
0.975,2.4,-5.2,2.4,5.4,9.8,0.5
0.976,0.3,-4,4,5.5,9.5,0.5
0.977,-1,-2.6,5.7,5.5,9.4,0.5
0.978,-1.1,-1.2,7.3,5.5,9.6,0.5
0.979,-0.2,0.2,8.7,5.8,10.1,0.5
0.98,0.9,1.6,10,6.2,10.7,0.5
0.981,1.5,2.9,11.1,6.8,10.9,0.5
0.982,1.1,4,11.8,7.2,10.5,0.5
0.983,-0.1,4.8,11.8,7.1,9.5,0.5
0.984,-1.6,5.1,11,6.5,8.2,0.5
0.985,-2.6,4.9,9.5,5.5,7,0.5
0.986,-3,4.3,7.6,4.4,6,0.5
0.987,-3,3.4,5.7,3.7,5.4,0.5
0.988,-3.4,2.5,4.3,3.4,4.8,0.5
0.989,-4.4,1.8,3.4,3.8,4,0.5
0.99,-5.6,1.5,3.2,4.5,3.1,0.5
0.991,-6.3,1.8,3.2,5.2,2.4,0.5
0.992,-5.8,2.5,3.3,5.7,1.8,0.5
0.993,-4,3.6,3,5.5,1.6,0.5
0.994,-2,4.5,2.3,4.6,1.6,0.5
0.995,-1.1,5,1.1,3.2,1.6,0.5
0.996,-2.3,4.8,-0.3,1.8,1.5,0.5
0.997,-5.3,4.1,-1.5,1,1.3,0.5
0.998,-9,3.2,-2.5,1.1,1.2,0.5
0.999,-12,2.5,-2.9,1.9,1.2,0.5
1,-13.5,2.1,-2.8,3.3,1.3,0.5
1.001,-13.6,2,-2.6,4.4,1.1,0.5
1.002,-13.1,2.3,-2.2,5,0.7,0.5
1.003,-12.6,2.7,-1.9,5,0.3,0.5
1.004,-12.4,3.3,-1.6,4.7,0,0.5
1.005,-12.1,4.1,-1,4.5,0.4,0.5
1.006,-11.4,5,-0.2,4.8,1.3,0.5
1.007,-10.5,6.2,0.8,5.5,2.4,0.5
1.008,-9.8,7.4,1.7,6.3,3.2,0.5
1.009,-9.9,8.5,2.3,6.9,3.3,0.5
1.01,-10.9,9.1,2.4,6.8,2.6,0.5
1.011,-12.4,9.2,1.9,6,1.5,0.5
1.012,-13.8,8.7,1,4.7,0.2,0.5
1.013,-14.7,7.4,-0.5,3.3,-0.9,0.5
1.014,-15.3,5.7,-2.2,2,-1.6,0.5
1.015,-15.8,3.8,-4,1.2,-2.2,0.5
1.016,-16.4,2.2,-5.5,0.9,-2.9,0.5
1.017,-16.9,1.2,-6.4,0.7,-3.6,0.5
1.018,-16.7,0.9,-6.2,0.6,-4.5,0.5
1.019,-15.5,1.2,-5.1,0.1,-5.3,0.5
1.02,-13.5,1.7,-3.4,-0.7,-6.1,0.5
1.021,-11.3,2,-1.6,-1.7,-6.6,0.5
1.022,-10.1,2,-0.3,-2.3,-6.8,0.5
1.023,-10.5,1.6,0.1,-2.4,-6.8,0.5
1.024,-12.4,1.2,-0.3,-1.9,-6.5,0.5
1.025,-15,1,-1.3,-0.9,-5.9,0.5
1.026,-16.9,1.1,-2.1,0.2,-5,0.5
1.027,-16.9,1.6,-2.3,1,-3.8,0.5
1.028,-14.9,2.3,-1.6,1.3,-2.6,0.5
1.029,-11.5,3.2,-0.4,1.1,-1.6,0.5
1.03,-8.2,4.1,1,0.6,-1,0.5
1.031,-6.6,4.5,1.9,-0.1,-1.1,0.5
1.032,-7.3,4.5,2.1,-0.9,-1.9,0.5
1.033,-10.2,4,1.8,-1.7,-3.1,0.5
1.034,-14,3,1.2,-2.5,-4.5,0.5
1.035,-17.1,1.9,0.5,-3.2,-5.7,0.5
1.036,-18.6,0.9,-0.2,-3.6,-6.5,0.5
1.037,-18.3,0.1,-1.2,-3.7,-6.6,0.5
1.038,-17,-0.3,-2.5,-3.5,-6.1,0.5
1.039,-15.7,-0.4,-3.8,-2.8,-5.2,0.5
1.04,-15,-0.3,-4.7,-1.9,-4.2,0.5
1.041,-15,0.3,-4.7,-1,-3.1,0.5
1.042,-15.1,1.1,-3.6,-0.2,-2.4,0.5
1.043,-15,2.1,-1.9,0,-2,0.5
1.044,-14.3,3.1,-0.5,-0.3,-2,0.5
1.045,-13.5,3.6,0.1,-1,-2.1,0.5
1.046,-12.9,3.7,-0.4,-1.7,-2.1,0.5
1.047,-12.8,3.5,-1.4,-2,-1.6,0.5
1.048,-13,3.4,-2,-1.8,-0.8,0.5
1.049,-13,3.7,-1.8,-1.1,0.3,0.5
1.05,-12.3,4.4,-0.5,-0.3,1.5,0.5
1.051,-11,5.5,1.3,0.1,2.4,0.5
1.052,-9.7,6.4,2.9,0.1,2.7,0.5
1.053,-8.9,6.8,3.7,-0.2,2.6,0.5
1.054,-9,6.7,3.7,-0.5,1.9,0.5
1.055,-10.1,6.3,3.1,-0.7,1,0.5
1.056,-11.5,5.9,2.5,-0.5,0.2,0.5
1.057,-12.6,5.9,2.3,-0.4,-0.3,0.5
1.058,-13.1,6.3,2.7,-0.3,-0.3,0.5
1.059,-13.1,6.9,3.6,-0.5,0.1,0.5
1.06,-12.9,7.5,4.8,-0.8,0.7,0.5
1.061,-12.4,7.9,5.9,-0.9,1.1,0.5
1.062,-11.6,8,6.6,-0.6,1.2,0.5
1.063,-10.5,7.8,6.7,0,0.7,0.5
1.064,-9.3,7.4,6.1,0.7,0,0.5
1.065,-8.5,6.9,5.1,1.1,-0.7,0.5
1.066,-8.8,6.5,4.1,1,-1.2,0.5
1.067,-10.1,6.1,3.6,0.4,-1.2,0.5
1.068,-11.7,5.8,3.7,-0.2,-0.9,0.5
1.069,-12.6,5.7,4.3,-0.4,-0.4,0.5
1.07,-12.1,5.7,5.1,-0.1,0.2,0.5
1.071,-10.4,5.9,5.7,0.7,0.6,0.5
1.072,-8.8,6.1,5.9,1.7,1,0.5
1.073,-8.6,6.4,5.8,2.4,1.4,0.5
1.074,-10.2,6.8,5.7,2.4,1.7,0.5
1.075,-12.6,7.1,5.8,1.7,2,0.5
1.076,-14.2,7.4,6.1,0.7,2,0.5
1.077,-13.7,7.5,6.5,-0.3,1.8,0.5
1.078,-11.1,7.3,6.8,-0.9,1.3,0.5
1.079,-7.9,7,7,-1.1,0.7,0.5
1.08,-6,6.7,7.3,-0.9,0.3,0.5
1.081,-6.4,6.6,7.9,-0.7,0.3,0.5
1.082,-9,6.7,9,-0.5,0.9,0.5
1.083,-12.2,7.1,10.5,-0.5,1.8,0.5
1.084,-14.3,7.5,11.8,-0.3,2.8,0.5
1.085,-14.5,7.8,12.5,0,3.3,0.5
1.086,-13.3,7.8,12,0.3,3,0.5
1.087,-12,7.6,10.6,0.2,1.9,0.5
1.088,-12,7,8.6,-0.3,0.5,0.5
1.089,-13.5,6.3,6.7,-1.2,-0.9,0.5
1.09,-15.8,5.5,5.4,-2.3,-1.7,0.5
1.091,-17.5,4.8,5,-3.1,-1.9,0.5
1.092,-17.4,4.2,5.2,-3.4,-1.7,0.5
1.093,-15.2,4,5.7,-3.3,-1.8,0.5
1.094,-12,4,6,-3,-2.4,0.5
1.095,-9.9,4.3,6.1,-3,-3.6,0.5
1.096,-10.1,4.4,6.1,-3.4,-5,0.5
1.097,-13,4.2,6.1,-3.9,-6.1,0.5
1.098,-17.1,3.7,6.2,-4.4,-6.4,0.5
1.099,-20.3,3,6.4,-4.5,-6,0.5
1.1,-20.4,2.4,6.6,-4.2,-5.1,0.5
1.101,-17.1,2.3,6.7,-3.7,-4.1,0.5
1.102,-11.7,2.7,6.7,-3.2,-3.2,0.5
1.103,-6.6,3.5,6.7,-2.8,-2.2,0.5
1.104,-3.4,4.5,6.9,-2.3,-1.1,0.5
1.105,-2.5,5.4,7.3,-1.6,0.4,0.5
1.106,-2.2,6.2,7.9,-0.5,2.6,0.5
1.107,0,7.3,8.9,1.1,5.5,0.5
1.108,6.1,9,10.6,3.3,9.3,0.5
1.109,16,11.7,13.4,6.2,14.1,0.5
1.11,28.2,15.2,17.6,9.6,19.7,0.5
1.111,40.501,19.3,22.9,13.4,25.6,0.5
1.112,51.001,23.4,28.2,17.1,31,0.5
1.113,59.401,27,32.4,20,34.701,0.5
1.114,66.201,29.6,34.201,21.7,36.201,0.5
1.115,71.801,30.8,33.101,21.7,35.101,0.5
1.116,75.901,30.6,29.7,20.3,32.1,0.5
1.117,77.601,29.1,25.1,17.8,28,0.5
1.118,75.301,26.4,20.6,14.9,23.6,0.5
1.119,68.401,23.2,16.8,11.9,19.4,0.5
1.12,57.501,19.8,13.6,9.1,15.3,0.5
1.121,44.001,16.6,10.5,6.5,10.9,0.5
1.122,29.7,13.7,6.7,3.7,5.7,0.5
1.123,16,11.1,1.9,0.6,-0.3,0.5
1.124,3.2,8.4,-3.6,-2.8,-6.7,0.5
1.125,-9.2,5.7,-8.9,-6.5,-12.6,0.5
1.126,-21.5,3,-13.1,-9.9,-17.1,0.5
1.127,-33.501,0.6,-15.6,-12.5,-19.6,0.5
1.128,-44.401,-1.3,-16.3,-13.7,-20.1,0.5
1.129,-53.001,-2.4,-15.4,-13.3,-19,0.5
1.13,-58.201,-2.6,-13.7,-11.7,-17.3,0.5
1.131,-59.901,-2,-11.7,-9.3,-15.5,0.5
1.132,-58.101,-0.9,-10,-6.9,-14.2,0.5
1.133,-53.701,0.7,-8.7,-4.9,-13,0.5
1.134,-47.301,2.5,-7.7,-3.5,-11.9,0.5
1.135,-40.001,4,-7,-2.7,-10.6,0.5
1.136,-32.7,5,-6.2,-2.3,-9.1,0.5
1.137,-26.2,5.3,-5.4,-2.2,-7.9,0.5
1.138,-21.5,4.9,-4.5,-2.5,-7.1,0.5
1.139,-18.6,4.3,-4,-2.9,-6.7,0.5
1.14,-17.2,3.7,-3.7,-3.4,-6.6,0.5
1.141,-16.5,3.4,-3.7,-3.6,-6.4,0.5
1.142,-15.6,3.5,-3.7,-3.5,-6,0.5
1.143,-14.1,4,-3.6,-3.1,-5.5,0.5
1.144,-11.8,4.6,-3.3,-2.6,-5.2,0.5
1.145,-9.2,5.1,-2.7,-2.5,-5.2,0.5
1.146,-6.9,5.5,-2,-2.7,-5.5,0.5
1.147,-5.2,5.6,-1.3,-3.3,-6.1,0.5
1.148,-4.3,5.4,-0.8,-3.8,-6.6,0.5
1.149,-4.1,5.1,-0.6,-4,-6.8,0.5
1.15,-4.4,4.7,-0.8,-3.9,-6.9,0.5
1.151,-5.1,4.4,-1.3,-3.6,-6.8,0.5
1.152,-6,4.3,-2,-3.4,-6.6,0.5
1.153,-7,4.4,-2.7,-3.5,-6.3,0.5
1.154,-7.9,4.6,-3.1,-3.7,-5.8,0.5
1.155,-8.7,4.7,-3.1,-3.9,-5.3,0.5
1.156,-9.5,4.6,-2.5,-4,-4.8,0.5
1.157,-10.4,4.5,-1.4,-3.9,-4.5,0.5
1.158,-11.4,4.5,0,-3.6,-4.4,0.5
1.159,-12.4,4.8,1.6,-3.1,-4.6,0.5
1.16,-13,5.5,3,-2.6,-4.8,0.5
1.161,-12.7,6.2,4.1,-2.1,-4.9,0.5
1.162,-11.6,6.8,4.7,-1.8,-4.9,0.5
1.163,-9.8,7.1,4.6,-1.6,-4.8,0.5
1.164,-8.2,7,3.9,-1.5,-4.9,0.5
1.165,-7.2,6.6,2.8,-1.5,-5.1,0.5
1.166,-7.2,6.2,1.7,-1.5,-5.4,0.5
1.167,-7.9,5.9,0.8,-1.8,-5.6,0.5
1.168,-8.9,5.6,0.4,-2.3,-5.6,0.5
1.169,-9.6,5.4,0.5,-3,-5.3,0.5
1.17,-9.7,5.1,0.7,-3.9,-5,0.5
1.171,-9.3,4.8,0.9,-4.7,-4.9,0.5
1.172,-8.7,4.5,0.9,-5.2,-5.3,0.5
1.173,-8.2,4,0.7,-5.4,-6.1,0.5
1.174,-7.9,3.4,0.4,-5.2,-6.9,0.5
1.175,-7.8,2.8,0.2,-4.9,-7.5,0.5
1.176,-7.8,2.4,0.3,-4.7,-7.5,0.5
1.177,-8,2.3,0.6,-4.6,-7.2,0.5
1.178,-8.6,2.3,0.9,-4.6,-7,0.5
1.179,-9.6,2.3,0.8,-4.8,-7.2,0.5
1.18,-10.4,2,0.2,-5.2,-7.9,0.5
1.181,-10.4,1.5,-0.8,-5.8,-8.9,0.5
1.182,-9.1,0.8,-1.9,-6.5,-9.7,0.5
1.183,-6.6,0.1,-2.6,-7.1,-9.8,0.5
1.184,-3.9,0,-2.6,-7.3,-9.1,0.5
1.185,-2.2,0.4,-1.8,-6.8,-7.7,0.5
1.186,-2.5,1.4,-0.5,-5.7,-6.2,0.5
1.187,-4.7,2.7,0.8,-4.5,-5.1,0.5
1.188,-7.5,3.8,1.7,-3.4,-4.7,0.5
1.189,-9.4,4.5,2,-3,-5.1,0.5
1.19,-9.6,4.5,1.7,-3.2,-6,0.5
1.191,-8.3,4.1,1.1,-3.7,-6.9,0.5
1.192,-6.6,3.3,0.6,-4.1,-7.4,0.5
1.193,-5.5,2.6,0.4,-4.2,-7.4,0.5
1.194,-5.6,2.2,0.5,-3.7,-7,0.5
1.195,-6.2,2,0.8,-2.8,-6.5,0.5
1.196,-6.6,2,0.9,-1.8,-6.3,0.5
1.197,-6.3,2,0.5,-1,-6.5,0.5
1.198,-5.6,1.9,-0.5,-0.4,-7,0.5
1.199,-5.1,1.5,-2.1,-0.3,-7.7,0.5
1.2,-5.3,1,-4,-0.5,-8.1,0.5
1.201,-5.7,0.5,-5.9,-0.9,-8,0.5
1.202,-5.8,0,-7.4,-1.5,-7.5,0.5
1.203,-5,-0.2,-8.2,-2.1,-6.7,0.5
1.204,-3.3,0.1,-8.2,-2.4,-6,0.5
1.205,-1.8,0.7,-7.6,-2.5,-5.5,0.5
1.206,-1.3,1.8,-6.6,-2.2,-5.2,0.5
1.207,-2.3,3.2,-5.3,-1.8,-4.9,0.5
1.208,-4.2,4.5,-4.1,-1.4,-4.6,0.5
1.209,-6.2,5.6,-3.4,-1.1,-4.3,0.5
1.21,-7.5,6.2,-3.5,-1.1,-4,0.5
1.211,-8.2,6.4,-4.4,-1.2,-3.9,0.5
1.212,-8.6,6.6,-5.7,-1.3,-3.9,0.5
1.213,-9.3,7,-6.8,-1.2,-4,0.5
1.214,-9.9,7.6,-7,-0.7,-3.9,0.5
1.215,-10,8.4,-6,-0.1,-3.6,0.5
1.216,-8.9,8.9,-4.4,0.3,-3.2,0.5
1.217,-6.6,8.8,-2.8,0.3,-3.1,0.5
1.218,-3.6,8.1,-2.1,-0.5,-3.7,0.5
1.219,-1.2,6.8,-2.6,-1.8,-5,0.5
1.22,-0.3,5.4,-4.1,-3.2,-6.7,0.5
1.221,-1.1,4.2,-5.9,-4.4,-8.2,0.5
1.222,-3.2,3.3,-7.2,-5,-9,0.5
1.223,-5.8,2.8,-7.6,-5.1,-8.8,0.5
1.224,-8,2.4,-7.1,-4.9,-7.7,0.5
1.225,-9.2,2.2,-6.2,-4.9,-6.2,0.5
1.226,-9.2,2,-5.2,-5,-4.9,0.5
1.227,-7.9,2,-4.3,-5.1,-4.1,0.5
1.228,-5.9,2.1,-3.8,-5.1,-4.1,0.5
1.229,-4,2.2,-3.5,-4.6,-4.4,0.5
1.23,-3.1,2.4,-3.4,-3.9,-4.7,0.5
1.231,-3.6,2.6,-3.5,-3,-4.8,0.5
1.232,-5.4,2.8,-3.8,-2.4,-4.5,0.5
1.233,-7.7,3.1,-4,-2.1,-4,0.5
1.234,-9.4,3.3,-4.2,-2,-3.7,0.5
1.235,-9.8,3.5,-4.3,-1.8,-3.7,0.5
1.236,-9,3.5,-4.4,-1.4,-3.9,0.5
1.237,-7.7,3.3,-4.5,-0.7,-4.1,0.5
1.238,-6.6,3.1,-4.8,-0.1,-4,0.5
1.239,-5.8,3.1,-5.3,0.1,-3.6,0.5
1.24,-5.2,3.4,-5.7,-0.2,-3,0.5
1.241,-4.5,3.8,-6.1,-0.9,-2.6,0.5
1.242,-3.7,4,-6.2,-1.8,-2.5,0.5
1.243,-3.6,4,-6.2,-2.4,-2.8,0.5
1.244,-4.5,3.5,-6.3,-2.9,-3.2,0.5
1.245,-6.5,2.9,-6.5,-3.1,-3.2,0.5
1.246,-8.5,2.4,-6.7,-3.4,-2.7,0.5
1.247,-9.5,2.3,-6.8,-3.7,-1.8,0.5
1.248,-8.7,2.7,-6.6,-3.9,-1,0.5
1.249,-6.5,3.4,-6,-4,-0.7,0.5
1.25,-4.2,3.9,-5.2,-3.8,-1.1,0.5
1.251,-3.1,4,-4.5,-3.5,-1.8,0.5
1.252,-3.7,3.7,-4,-3.2,-2.5,0.5
1.253,-5.2,3.3,-3.7,-3,-2.5,0.5
1.254,-6.5,3.1,-3.4,-2.7,-1.9,0.5
1.255,-6.5,3.3,-2.8,-2.2,-0.9,0.5
1.256,-5.1,4,-1.9,-1.3,0,0.5
1.257,-3,4.7,-0.8,-0.1,0.2,0.5
1.258,-1.3,5.1,0.1,1,-0.3,0.5
1.259,-0.8,5.2,0.7,1.7,-1.1,0.5
1.26,-1.7,4.9,0.8,1.7,-1.7,0.5
1.261,-3.6,4.6,0.6,1.3,-1.8,0.5
1.262,-5.8,4.5,0.5,0.7,-1.4,0.5
1.263,-7.5,4.7,0.4,0.4,-0.8,0.5
1.264,-8,5.1,0.4,0.5,-0.3,0.5
1.265,-7.1,5.3,0.4,0.9,-0.2,0.5
1.266,-5.3,5.4,0.1,1.3,-0.4,0.5
1.267,-3.4,5.4,-0.4,1.5,-0.7,0.5
1.268,-2.7,5.3,-1,1.5,-0.8,0.5
1.269,-3.9,5.4,-1.4,1.5,-0.7,0.5
1.27,-6.5,5.5,-1.5,1.4,-0.5,0.5
1.271,-9.7,5.6,-1.3,1.3,-0.5,0.5
1.272,-11.9,5.5,-0.9,0.9,-0.9,0.5
1.273,-12.3,5.2,-0.7,0.3,-1.6,0.5
1.274,-11.1,4.8,-0.8,-0.3,-2.4,0.5
1.275,-9.3,4.4,-1.3,-0.5,-2.9,0.5
1.276,-8.1,4.3,-2.1,0.1,-2.7,0.5
1.277,-8.1,4.3,-2.9,1.3,-1.9,0.5
1.278,-9.1,4.4,-3.4,2.9,-0.5,0.5
1.279,-10.3,4.7,-3.5,4.2,1.1,0.5
1.28,-11,5.1,-3.1,4.7,2.3,0.5
1.281,-10.6,5.6,-2.6,4.4,2.8,0.5
1.282,-9.6,6.2,-2.2,3.6,2.5,0.5
1.283,-8.5,6.6,-2.2,2.8,1.8,0.5
1.284,-8.2,6.6,-2.5,2.2,1.2,0.5
1.285,-8.9,6.4,-3,2,0.9,0.5
1.286,-10.5,5.9,-3.3,2.3,1.2,0.5
1.287,-12.4,5.8,-3.3,2.8,1.8,0.5
1.288,-13.5,6,-3,3.5,2.3,0.5
1.289,-13.2,6.5,-2.7,4,2.3,0.5
1.29,-11.4,7.1,-2.5,4.4,1.9,0.5
1.291,-8.8,7.2,-2.6,4.5,1.2,0.5
1.292,-6.6,6.8,-2.7,4.2,0.7,0.5
1.293,-5.8,6,-2.7,3.7,0.7,0.5
1.294,-6.3,5.1,-2.6,3.1,1,0.5
1.295,-7.5,4.6,-2.3,2.8,1.3,0.5
1.296,-8.2,4.5,-2,2.7,1.5,0.5
1.297,-7.8,4.6,-1.9,2.8,1.4,0.5
1.298,-6.9,4.7,-1.9,3,1.1,0.5
1.299,-6.8,4.5,-1.9,3.2,1.2,0.5
1.3,-8.3,4.4,-1.9,3.3,1.8,0.5
1.301,-11.3,4.4,-1.8,3.4,2.8,0.5
1.302,-14.3,4.7,-1.7,3.4,3.9,0.5
1.303,-15.7,5.4,-1.9,3.1,4.6,0.5
1.304,-14.7,6,-2.4,2.6,4.4,0.5
1.305,-11.8,6.3,-2.9,1.8,3.3,0.5
1.306,-8.8,6.2,-3.2,0.9,1.8,0.5
1.307,-7.1,5.7,-3.2,0.1,0.5,0.5
1.308,-7.1,5,-3,-0.2,-0.2,0.5
1.309,-7.9,4.4,-2.9,-0.1,-0.2,0.5
1.31,-8.2,3.8,-3.1,0.3,0.2,0.5
1.311,-7.4,3.4,-3.7,0.8,0.5,0.5
1.312,-6.2,3.1,-4.6,1.1,0.1,0.5
1.313,-6,2.8,-5.4,1.1,-0.9,0.5
1.314,-7.9,2.6,-5.8,0.7,-2.3,0.5
1.315,-11.5,2.5,-5.5,0.3,-3.3,0.5
1.316,-15.6,2.6,-4.5,0,-3.5,0.5
1.317,-18.4,2.9,-3.3,0,-2.6,0.5
1.318,-19,3.6,-1.9,0.6,-0.8,0.5
1.319,-17.4,4.7,-0.7,1.6,1.4,0.5
1.32,-14.6,6.1,0.2,2.9,3.5,0.5
1.321,-11.9,7.7,1,4.2,5.1,0.5
1.322,-10,9.1,1.7,5.1,6,0.5
1.323,-9.2,10.2,2.3,5.1,5.9,0.5
1.324,-9.7,10.8,2.8,4.4,5.1,0.5
1.325,-11.1,10.9,2.9,2.8,3.6,0.5
1.326,-13.1,10.2,2.5,0.8,1.7,0.5
1.327,-15,8.8,1.6,-1.2,-0.3,0.5
1.328,-16.4,6.8,0.4,-3,-2,0.5
1.329,-17,4.6,-0.8,-4.2,-3.2,0.5
1.33,-17,2.7,-1.5,-4.6,-3.7,0.5
1.331,-16.5,1.6,-1.6,-4.3,-3.9,0.5
1.332,-16.1,1.4,-1.4,-3.6,-4.2,0.5
1.333,-15.6,1.9,-1.2,-2.8,-4.7,0.5
1.334,-14.6,2.3,-1.6,-2.5,-5.3,0.5
1.335,-12.7,2.3,-2.6,-2.6,-5.9,0.5
1.336,-10,1.7,-3.8,-3,-6.1,0.5
1.337,-7,0.9,-4.8,-3.3,-5.8,0.5
1.338,-4.8,0.3,-4.9,-3.1,-5.2,0.5
1.339,-4.1,0.4,-4.1,-2.4,-4.4,0.5
1.34,-4.8,1,-2.8,-1.3,-3.9,0.5
1.341,-6.3,1.7,-1.5,-0.5,-3.5,0.5
1.342,-7.4,2.1,-0.9,-0.4,-3.3,0.5
1.343,-7.8,1.9,-1.2,-1.3,-3.1,0.5
1.344,-7.6,1.2,-2,-2.9,-2.9,0.5
1.345,-7.2,0.5,-2.8,-4.7,-2.7,0.5
1.346,-7.4,-0.2,-3.4,-6.1,-2.6,0.5
1.347,-8.4,-0.5,-3.5,-6.4,-2.5,0.5
1.348,-9.6,-0.5,-3.4,-5.6,-2.4,0.5
1.349,-10.4,-0.1,-3.5,-4,-2.3,0.5
1.35,-10.2,0.6,-3.9,-2.2,-2.3,0.5
1.351,-8.8,1.4,-4.8,-0.7,-2.7,0.5
1.352,-6.8,2.1,-5.9,0.1,-3.6,0.5
1.353,-4.8,2.6,-6.8,0.2,-4.8,0.5
1.354,-3.4,2.6,-7.5,0,-5.8,0.5
1.355,-3.2,2.1,-7.7,-0.2,-6.2,0.5
1.356,-4.2,1.5,-7.6,0,-6,0.5
1.357,-6.1,0.9,-7.3,0.2,-5.2,0.5
1.358,-8.5,0.7,-6.8,0.2,-4.5,0.5
1.359,-10.9,0.7,-6.2,-0.4,-4.1,0.5
1.36,-12.9,0.7,-5.5,-1.5,-4.3,0.5
1.361,-13.8,0.6,-4.8,-2.9,-4.7,0.5
1.362,-13.4,0.3,-4.1,-4.1,-5.1,0.5
1.363,-11.9,0.1,-3.7,-4.7,-4.9,0.5
1.364,-9.7,0.2,-3.6,-4.7,-4.3,0.5
1.365,-7.6,0.7,-3.7,-4.7,-3.7,0.5
1.366,-6.5,1.3,-4,-4.9,-3.2,0.5
1.367,-6.6,1.9,-4.1,-5.7,-3.2,0.5
1.368,-7.8,2.2,-3.9,-6.7,-3.5,0.5
1.369,-9.1,2.2,-3.6,-7.4,-3.7,0.5
1.37,-9.7,2.2,-3.3,-7.3,-3.7,0.5
1.371,-9.3,2.2,-3.1,-6.4,-3.2,0.5
1.372,-8,2.6,-3.1,-4.9,-2.6,0.5
1.373,-6.6,3.3,-3.1,-3.6,-2.1,0.5
1.374,-5.7,3.9,-2.9,-3,-2,0.5
1.375,-5.7,4.4,-2.4,-3.2,-2.4,0.5
1.376,-6.3,4.5,-1.4,-4.1,-3.1,0.5
1.377,-7.3,4.3,-0.4,-5.2,-3.9,0.5
1.378,-8.6,4,0.3,-6.2,-4.7,0.5
1.379,-9.8,3.5,0.4,-6.8,-5.4,0.5
1.38,-10.8,2.9,-0.3,-7.2,-5.9,0.5
1.381,-11.2,2.4,-1.6,-7.3,-6.1,0.5
1.382,-10.6,1.8,-3.1,-7.2,-6.1,0.5
1.383,-9.1,1.4,-4.5,-6.8,-5.7,0.5
1.384,-6.8,1.3,-5.5,-6.1,-5.1,0.5
1.385,-4.5,1.3,-6,-5,-4.4,0.5
1.386,-2.6,1.4,-6.1,-4,-4.1,0.5
1.387,-1.4,1.3,-6,-3.2,-4.2,0.5
1.388,-0.7,1.1,-5.6,-2.8,-4.6,0.5
1.389,-0.4,0.8,-5.2,-2.8,-5,0.5
1.39,-0.7,0.6,-4.5,-2.9,-5.1,0.5
1.391,-1.8,0.7,-3.6,-2.9,-4.6,0.5
1.392,-3.7,1.1,-2.5,-2.8,-3.8,0.5
1.393,-6,1.5,-1.5,-2.6,-3,0.5
1.394,-7.7,1.8,-0.9,-2.4,-2.5,0.5
1.395,-7.9,1.8,-0.8,-2.2,-2.5,0.5
1.396,-6.4,1.8,-1.3,-1.9,-3,0.5
1.397,-4.3,1.8,-2,-1.4,-3.6,0.5
1.398,-2.8,2.1,-2.6,-0.7,-3.9,0.5
1.399,-3,2.6,-2.9,0.1,-3.9,0.5
1.4,-5,3.1,-2.9,0.7,-3.5,0.5
1.401,-7.8,3.3,-2.6,0.9,-2.9,0.5
1.402,-9.9,3.4,-2.1,0.8,-2.3,0.5
1.403,-10.3,3.5,-1.6,0.2,-1.9,0.5
1.404,-8.9,3.7,-1,-0.4,-1.6,0.5
1.405,-6.6,4.1,-0.3,-1.1,-1.6,0.5
1.406,-4.5,4.5,0.2,-1.5,-1.8,0.5
1.407,-3.3,4.6,0.5,-1.5,-2.2,0.5
1.408,-3.1,4.4,0.5,-0.9,-2.9,0.5
1.409,-3.7,4.1,0.3,0.1,-3.5,0.5
1.41,-4.5,4.1,0.1,1.4,-4,0.5
1.411,-4.8,4.6,0.1,2.8,-4.2,0.5
1.412,-4.4,5.6,0.3,3.9,-4.1,0.5
1.413,-3.2,7,0.6,4.9,-3.7,0.5
1.414,-1.8,8.5,1.1,5.8,-3.1,0.5
1.415,-0.4,9.9,1.7,7.1,-2.3,0.5
1.416,0.4,11.4,2.6,8.9,-1.2,0.5
1.417,0.5,13.4,4,11.2,0.5,0.5
1.418,0.1,15.9,5.8,13.8,2.7,0.5
1.419,-0.3,18.8,7.8,16.2,5.5,0.5
1.42,-0.4,21.6,9.9,18.2,8.5,0.5
1.421,-0.2,23.9,11.9,19.8,11.3,0.5
1.422,0,25.1,13.6,20.9,13.7,0.5
1.423,0,25.2,15.2,21.8,15.4,0.5
1.424,-0.4,24.2,16.7,22.5,16.8,0.5
1.425,-0.9,22.5,18,22.8,17.9,0.5
1.426,-1.1,20.4,18.6,22.8,19.1,0.5
1.427,-0.9,17.8,18.4,22.5,20.5,0.5
1.428,-0.3,14.8,17.4,21.9,22,0.5
1.429,0.2,11.3,15.8,21.5,23.5,0.5
1.43,0.2,7.1,14.1,21.3,25.2,0.5
1.431,-0.3,2.5,12.9,21.3,27,0.5
1.432,-1.3,-2.5,12.3,21.2,29.1,0.5
1.433,-2.2,-7.6,11.9,20.9,31.5,0.5
1.434,-2.8,-12.3,11.6,20.1,33.901,0.5
1.435,-2.9,-16.5,10.8,18.9,36.301,0.5
1.436,-2.7,-20.2,9.6,17.4,38.301,0.5
1.437,-2.5,-23.7,8.1,15.8,39.901,0.5
1.438,-2.6,-27.6,6.2,14.2,40.801,0.5
1.439,-2.7,-32,4,12.2,41.001,0.5
1.44,-2.9,-37.201,1.4,9.8,40.101,0.5
1.441,-3,-42.701,-1.7,6.7,38.301,0.5
1.442,-3.1,-48.101,-5.3,3.3,35.601,0.5
1.443,-3.2,-52.701,-8.9,-0.1,32.5,0.5
1.444,-3.6,-56.101,-12.1,-2.9,29.6,0.5
1.445,-4.3,-58.201,-14.4,-4.7,27.6,0.5
1.446,-5.1,-59.201,-15.6,-5.5,26.8,0.5
1.447,-5.8,-59.501,-15.8,-5.4,27,0.5
1.448,-6.1,-59.601,-15.5,-4.9,27.6,0.5
1.449,-6.1,-59.501,-15.1,-4.3,27.9,0.5
1.45,-6,-59.101,-15.1,-4,27.1,0.5
1.451,-5.9,-58.101,-15.4,-4.2,25,0.5
1.452,-5.9,-56.301,-16.1,-5,21.6,0.5
1.453,-5.9,-53.701,-16.9,-6.4,17.1,0.5
1.454,-5.5,-50.201,-17.7,-8.3,12,0.5
1.455,-4.5,-46.201,-18.5,-10.8,6.5,0.5
1.456,-3.2,-41.901,-19.4,-13.6,0.7,0.5
1.457,-2.2,-37.201,-20.4,-16.6,-5.3,0.5
1.458,-2.2,-32.5,-21.4,-19.7,-11.1,0.5
1.459,-3.8,-27.8,-22.2,-22.6,-16.5,0.5
1.46,-6.5,-23.2,-22.6,-24.9,-21,0.5
1.461,-9.6,-19.1,-22.5,-26.4,-24.4,0.5
1.462,-11.6,-15.7,-21.9,-27,-26.5,0.5
1.463,-11.7,-12.9,-20.9,-26.8,-27.4,0.5
1.464,-9.7,-10.7,-19.7,-26.1,-27.6,0.5
1.465,-6.6,-9.1,-18.5,-25.1,-27.3,0.5
1.466,-3.8,-7.8,-17.1,-24.1,-27,0.5
1.467,-2.4,-6.6,-15.7,-23.1,-26.7,0.5
1.468,-2.9,-5.4,-14.3,-22.4,-26.6,0.5
1.469,-4.5,-4.2,-13,-22,-26.7,0.5
1.47,-6.1,-3.2,-12,-22,-27,0.5
1.471,-6.8,-2.5,-11.7,-22.5,-27.5,0.5
1.472,-6.6,-2.2,-11.9,-23.3,-27.9,0.5
1.473,-6.1,-2.2,-12.6,-24.1,-28.2,0.5
1.474,-6.1,-2.4,-13.2,-24.4,-28.3,0.5
1.475,-6.6,-2.6,-13.3,-24.2,-28.1,0.5
1.476,-7.3,-2.6,-12.5,-23.4,-27.7,0.5
1.477,-7.3,-2.6,-11,-22.1,-26.9,0.5
1.478,-6.2,-2.5,-9,-20.6,-25.8,0.5
1.479,-4.6,-2.3,-7.1,-18.9,-24.3,0.5
1.48,-3.4,-2,-5.8,-16.9,-22.5,0.5
1.481,-3.5,-1.4,-5,-14.5,-20.7,0.5
1.482,-5,-0.5,-4.6,-12.1,-19,0.5
1.483,-6.8,0.7,-4.1,-9.9,-17.5,0.5
1.484,-7.8,1.8,-3.1,-8.3,-16.2,0.5
1.485,-7.4,2.6,-1.6,-7.4,-14.8,0.5
1.486,-6,3,0.3,-7.1,-13.1,0.5
1.487,-4.7,3,2,-6.9,-11.1,0.5
1.488,-4.7,2.9,3.4,-6.4,-9,0.5
1.489,-6.5,3,4.2,-5.7,-7.1,0.5
1.49,-9.4,3.3,4.4,-5.1,-6,0.5
1.491,-12.4,3.5,4.3,-4.7,-5.7,0.5
1.492,-14.5,3.4,4,-4.9,-5.9,0.5
1.493,-15.5,3,3.7,-5.3,-6.3,0.5
1.494,-15.4,2.3,3.4,-5.7,-6.5,0.5
1.495,-14.8,1.7,3.1,-5.7,-6.3,0.5
1.496,-13.9,1.5,2.8,-5.3,-5.9,0.5
1.497,-12.7,1.7,2.3,-4.7,-5.6,0.5
1.498,-11.2,2,1.8,-4.5,-5.4,0.5
1.499,-9.6,2.3,1.4,-4.8,-5.4,0.5
1.5,-8.5,2.3,1.3,-5.4,-5.3,0.5
1.501,-8.5,1.9,1.4,-6.1,-4.9,0.5
1.502,-9.5,1.5,1.9,-6.6,-4.3,0.5
1.503,-11.4,1.1,2.5,-6.7,-3.7,0.5
1.504,-13.2,0.8,3.1,-6.6,-3.3,0.5
1.505,-14.2,0.4,3.6,-6.5,-3.4,0.5
1.506,-14.2,0.1,4.1,-6.4,-3.6,0.5
1.507,-13.3,-0.3,4.6,-6.3,-3.7,0.5
1.508,-12,-0.5,5.4,-5.9,-3.3,0.5
1.509,-10.9,-0.3,6.4,-5.2,-2.4,0.5
1.51,-10,0.2,7.6,-4,-1.2,0.5
1.511,-9.2,1,8.8,-2.9,-0.3,0.5
1.512,-8.3,1.8,9.8,-1.9,0,0.5
1.513,-7.5,2.3,10.4,-1.4,-0.2,0.5
1.514,-7.1,2.2,10.5,-1.3,-0.8,0.5
1.515,-7.9,1.6,10.4,-1.2,-1.4,0.5
1.516,-9.8,0.9,10.2,-0.8,-1.6,0.5
1.517,-12.4,0.4,10,-0.2,-1.4,0.5
1.518,-14.7,0.5,10,0.6,-1.1,0.5
1.519,-15.7,1.2,9.9,1.2,-0.9,0.5
1.52,-15.3,2.2,9.9,1.4,-1.1,0.5
1.521,-13.8,2.9,9.7,1.3,-1.4,0.5
1.522,-12.2,2.9,9.3,0.9,-1.8,0.5
1.523,-11.2,2.2,8.9,0.5,-2,0.5
1.524,-10.9,1,8.6,0.4,-1.9,0.5
1.525,-10.9,-0.2,8.4,0.5,-1.5,0.5
1.526,-10.4,-1,8.5,0.7,-0.9,0.5
1.527,-9.5,-1,8.8,1,-0.2,0.5
1.528,-8.7,-0.1,9.4,1.4,0.6,0.5
1.529,-8.5,1.2,10.2,1.8,1.3,0.5
1.53,-9.2,2.6,11.2,2.4,2.1,0.5
1.531,-10.5,3.9,12.2,3.2,2.9,0.5
1.532,-11.6,4.8,13.4,3.8,3.9,0.5
1.533,-11.8,5.6,14.5,4.2,5.1,0.5
1.534,-10.8,6.2,15.5,4.3,6.4,0.5
1.535,-9.3,6.8,16.1,4.3,7.4,0.5
1.536,-8.1,7.3,16.3,4.1,7.8,0.5
1.537,-7.9,7.5,15.8,4,7.5,0.5
1.538,-8.8,7.3,14.7,3.7,6.6,0.5
1.539,-10.2,6.5,13.1,3.3,5.5,0.5
1.54,-11.1,5.4,11.7,2.6,4.5,0.5
1.541,-10.9,4.3,10.9,1.8,3.8,0.5
1.542,-9.4,3.7,11,1.2,3.4,0.5
1.543,-7.3,3.5,11.9,0.8,2.9,0.5
1.544,-5.4,3.5,13.2,0.7,2.4,0.5
1.545,-4.8,3.5,14,0.6,1.9,0.5
1.546,-6,3.2,14,0.5,1.7,0.5
1.547,-8.6,2.5,13.1,0.1,2,0.5
1.548,-11.7,1.8,11.9,-0.3,2.8,0.5
1.549,-14.1,1.2,10.8,-0.6,3.6,0.5
1.55,-14.9,1,10.4,-0.5,4.2,0.5
1.551,-13.9,1.1,10.4,-0.2,4.3,0.5
1.552,-11.5,1.1,10.7,0.2,4,0.5
1.553,-8.6,0.9,11,0.5,3.8,0.5
1.554,-6,0.5,11,0.6,3.7,0.5
1.555,-4.4,0.1,10.9,0.7,3.7,0.5
1.556,-4.1,-0.3,10.9,0.8,3.7,0.5
1.557,-5.4,-0.5,10.9,0.8,3.5,0.5
1.558,-8.2,-0.8,10.8,0.7,3,0.5
1.559,-11.9,-1.5,10.3,0.4,2.5,0.5
1.56,-15.3,-2.5,9.5,-0.3,2,0.5
1.561,-17,-3.7,8.8,-1.3,1.6,0.5
1.562,-16.2,-4.8,8.5,-2.2,1.2,0.5
1.563,-13.3,-5.3,8.8,-2.9,0.8,0.5
1.564,-9.9,-5.3,9.6,-3.3,0.5,0.5
1.565,-7.8,-4.8,10.6,-3.1,0.6,0.5
1.566,-7.9,-4.1,11.4,-2.4,1.5,0.5
1.567,-9.3,-3.3,12.2,-0.9,3,0.5
1.568,-10.1,-2.2,13.2,1,5.1,0.5
1.569,-8.5,-0.9,14.4,3.1,7.3,0.5
1.57,-3.9,0.6,15.9,4.8,9.1,0.5
1.571,2.7,2.1,17.4,6,10.6,0.5
1.572,9.4,3.4,18.6,6.8,12.4,0.5
1.573,15.1,4.5,19.5,8.1,15.1,0.5
1.574,19.9,5.9,20.8,10.5,19.2,0.5
1.575,25.2,7.8,23.1,14.1,24.7,0.5
1.576,32.5,10.6,26.7,18.5,30.8,0.5
1.577,41.901,13.9,31,22.3,36.201,0.5
1.578,52.401,17,34.801,24.4,39.801,0.5
1.579,61.801,18.8,37.001,24.3,41.101,0.5
1.58,68.101,18.9,36.801,22.6,40.001,0.5
1.581,70.501,17.6,34.401,20.1,37.401,0.5
1.582,69.201,15.5,30.9,18,34.101,0.5
1.583,64.901,13.5,27.5,16.3,30.5,0.5
1.584,58.701,11.9,24.6,14.8,26.6,0.5
1.585,50.701,10.5,22.1,12.5,22.1,0.5
1.586,40.801,8.8,19.3,9,16.8,0.5
1.587,28.8,6.3,15.7,4.8,11,0.5
1.588,14.6,3.1,11.3,0.6,5.3,0.5
1.589,-1.2,-0.2,6.8,-2.5,0.5,0.5
1.59,-17.4,-2.8,3.2,-4,-2.9,0.5
1.591,-32.2,-4.5,0.9,-4.1,-5,0.5
1.592,-43.701,-5.4,0,-3.6,-6.2,0.5
1.593,-50.901,-6.1,-0.1,-3.3,-7.1,0.5
1.594,-53.801,-6.9,0,-3.6,-7.7,0.5
1.595,-53.601,-7.9,0,-4.2,-7.8,0.5
1.596,-51.901,-9,0.1,-4.7,-7.1,0.5
1.597,-50.001,-9.4,0.6,-4.6,-5.3,0.5
1.598,-48.601,-8.9,1.8,-3.7,-2.7,0.5
1.599,-47.301,-7.6,3.6,-2.1,0.1,0.5
1.6,-45.301,-5.9,5.4,-0.2,2.6,0.5
1.601,-41.901,-4.4,6.7,1.6,4.3,0.5
1.602,-36.901,-3.5,7.2,2.9,5.6,0.5
1.603,-30.6,-3.2,6.9,3.7,6.6,0.5
1.604,-23.9,-3.3,6.1,4.1,7.5,0.5
1.605,-17.7,-3.6,5.4,4.1,8.4,0.5
1.606,-12.8,-4,4.9,3.8,8.9,0.5
1.607,-9.7,-4.4,4.5,3.5,9.1,0.5
1.608,-8.5,-5,4.4,3.4,8.8,0.5
1.609,-8.6,-5.6,4.6,3.7,8.7,0.5
1.61,-9.3,-5.9,5.3,4.3,8.9,0.5
1.611,-9.6,-5.7,6.5,5.2,9.5,0.5
1.612,-9.2,-5.1,7.9,5.9,10.3,0.5
1.613,-8.3,-4.4,8.9,6.2,10.9,0.5
1.614,-7.5,-4,9.1,6,11.2,0.5
1.615,-7.4,-4.1,8.4,5.5,11.3,0.5
1.616,-8.2,-4.8,7.2,5,11.5,0.5
1.617,-9.6,-5.6,6.3,4.7,12.2,0.5
1.618,-10.9,-6.2,6.1,4.7,13,0.5
1.619,-11.5,-6.5,6.6,4.8,13.7,0.5
1.62,-10.9,-6.7,7.5,4.7,13.8,0.5
1.621,-9.5,-7,8,4.3,13.3,0.5
1.622,-7.6,-7.7,7.8,3.8,12.6,0.5
1.623,-6,-8.5,7,3.6,12.1,0.5
1.624,-5.4,-9.2,6,4,12.5,0.5
1.625,-6,-9.3,5.4,4.8,13.6,0.5
1.626,-7.8,-8.6,5.2,6,14.9,0.5
1.627,-10.1,-7.5,5.4,7,15.8,0.5
1.628,-11.9,-6.1,5.4,7.7,15.7,0.5
1.629,-12.4,-5.1,5,7.8,14.7,0.5
1.63,-11,-4.6,4.2,7.4,13.4,0.5
1.631,-8.4,-4.8,3.5,6.5,12.3,0.5
1.632,-5.5,-5.4,3.2,5.3,11.9,0.5
1.633,-3.3,-6.2,3.3,3.9,12,0.5
1.634,-2.5,-7,3.6,2.8,12.5,0.5
1.635,-3.1,-7.6,3.7,2.2,12.9,0.5
1.636,-4.4,-8.2,3.5,2.2,13.2,0.5
1.637,-5.8,-8.8,2.9,2.7,13.2,0.5
1.638,-6.7,-9.4,2.4,3.5,13.1,0.5
1.639,-6.9,-10.1,2.3,4.3,13.2,0.5
1.64,-6.4,-10.6,2.8,5,13.6,0.5
1.641,-5.6,-10.7,3.7,5.4,14.3,0.5
1.642,-4.8,-10.5,4.6,5.9,15.1,0.5
1.643,-4,-10.1,5.2,6.5,15.7,0.5
1.644,-3.4,-9.7,5.2,7.2,16,0.5
1.645,-2.9,-9.6,4.7,7.7,15.8,0.5
1.646,-2.5,-9.9,4.1,7.8,15.4,0.5
1.647,-2,-10.5,3.5,7.5,15,0.5
1.648,-1.7,-11.3,3.2,6.9,14.9,0.5
1.649,-1.8,-12,3.1,6.2,15.2,0.5
1.65,-2.4,-12.6,3,5.7,15.6,0.5
1.651,-3.3,-13.4,2.6,5.3,15.7,0.5
1.652,-3.9,-14.5,1.8,4.9,15.1,0.5
1.653,-3.7,-15.9,0.7,4.3,14,0.5
1.654,-2.8,-17.6,-0.3,3.6,12.7,0.5
1.655,-1.7,-19,-1,2.9,12,0.5
1.656,-1.1,-19.8,-0.9,2.4,12.3,0.5
1.657,-1.8,-19.5,-0.1,2,13.3,0.5
1.658,-3.4,-18.4,1.1,1.8,14.6,0.5
1.659,-5.2,-17,2.2,1.7,15.4,0.5
1.66,-6.2,-15.9,2.9,1.6,15.4,0.5
1.661,-6.2,-15.7,2.8,1.5,14.6,0.5
1.662,-5.5,-16.5,2.1,1.4,13.6,0.5
1.663,-5.1,-17.9,1.1,1.6,13,0.5
1.664,-5.4,-19.5,0.3,2,12.9,0.5
1.665,-6.1,-20.5,-0.2,2.6,13.2,0.5
1.666,-6.3,-20.9,-0.4,3.4,13.4,0.5
1.667,-5.1,-20.8,-0.7,4.2,13.2,0.5
1.668,-2.6,-20.6,-1.4,4.7,12.7,0.5
1.669,-0.1,-20.8,-2.7,4.8,12.1,0.5
1.67,1.1,-21.6,-4.4,4.4,11.7,0.5
1.671,0.2,-22.8,-5.9,3.7,11.7,0.5
1.672,-2,-23.9,-6.8,3.1,11.9,0.5
1.673,-3.6,-24.7,-6.6,2.8,12.1,0.5
1.674,-3,-24.8,-5.5,3,12.4,0.5
1.675,0.1,-24.2,-4.1,3.7,12.8,0.5
1.676,4.2,-23.4,-2.8,4.6,13.4,0.5
1.677,7.1,-22.5,-2.2,5.4,14.5,0.5
1.678,7,-21.7,-2.1,6,16.1,0.5
1.679,3.9,-21.2,-2.6,6.3,17.7,0.5
1.68,-0.4,-20.9,-3.1,6.3,18.8,0.5
1.681,-3.5,-20.7,-3.5,6.2,19,0.5
1.682,-4.1,-20.5,-3.7,5.9,18.1,0.5
1.683,-2.3,-20.3,-3.6,5.4,16.8,0.5
1.684,0,-20.1,-3.2,5,15.6,0.5
1.685,1.1,-19.7,-2.4,4.8,15.2,0.5
1.686,0.3,-19.2,-1.4,4.9,15.8,0.5
1.687,-1.5,-18.4,-0.5,5.3,16.8,0.5
1.688,-2.9,-17.6,0.2,5.5,17.7,0.5
1.689,-2.5,-17.1,0.4,5.5,17.7,0.5
1.69,-0.6,-16.9,0,5.1,16.8,0.5
1.691,1.7,-17.1,-0.6,4.5,15.3,0.5
1.692,2.9,-17.6,-1.1,3.9,13.9,0.5
1.693,2.4,-18.1,-1.3,3.3,13,0.5
1.694,0.6,-18.5,-1.2,2.8,12.7,0.5
1.695,-1.3,-18.8,-1.1,2.1,12.6,0.5
1.696,-2.3,-19,-1.3,1.4,12.4,0.5
1.697,-2,-19.1,-1.8,0.9,11.9,0.5
1.698,-0.9,-18.8,-2.3,0.8,11.2,0.5
1.699,0.2,-18.1,-2.5,1.2,10.7,0.5
1.7,0.9,-16.8,-2.3,2,10.6,0.5
1.701,0.8,-15.2,-1.7,2.8,11,0.5
1.702,0.1,-13.5,-1.1,3.3,11.6,0.5
1.703,-1.1,-12.4,-0.8,3.5,12.2,0.5
1.704,-2.6,-11.7,-0.7,3.7,12.9,0.5
1.705,-4.3,-11.4,-0.6,4.3,13.4,0.5
1.706,-5.4,-11,-0.1,5.5,14,0.5
1.707,-5.2,-10.1,0.7,7.2,14.3,0.5
1.708,-3.3,-8.6,1.5,8.6,14.2,0.5
1.709,0,-6.8,2,9.4,13.6,0.5
1.71,3.7,-5.4,1.8,9.3,12.7,0.5
1.711,6.1,-4.7,1.2,8.3,11.7,0.5
1.712,6.4,-4.8,0.8,7.1,10.9,0.5
1.713,4.6,-5.4,0.9,6.3,10.4,0.5
1.714,2.2,-5.8,1.9,6.2,10.3,0.5
1.715,0.6,-5.7,3.2,6.8,10.1,0.5
1.716,0.8,-5,4.3,7.6,9.7,0.5
1.717,2.7,-4.2,4.8,8.2,9.2,0.5
1.718,5.2,-3.6,4.5,8.3,8.7,0.5
1.719,7,-3.5,4,7.9,8.6,0.5
1.72,7,-3.6,3.8,7.3,8.9,0.5
1.721,5.3,-3.6,4.3,6.9,9.3,0.5
1.722,2.3,-2.9,5.3,6.8,9.5,0.5
1.723,-1,-1.5,6.2,6.9,9.2,0.5
1.724,-3.4,0.1,6.4,6.9,8.4,0.5
1.725,-4.4,1.4,5.8,6.6,7.3,0.5
1.726,-3.6,1.9,4.4,5.9,6.2,0.5
1.727,-1.2,1.5,2.9,5.2,5.3,0.5
1.728,1.8,0.6,2,4.8,4.7,0.5
1.729,4.4,0,2,5,4.2,0.5
1.73,5.7,0,3,5.7,3.8,0.5
1.731,5.6,1,4.5,6.8,3.4,0.5
1.732,4.4,2.8,6.1,7.8,3.2,0.5
1.733,2.9,4.9,7.5,8.7,3.5,0.5
1.734,1.7,6.9,8.4,9.5,4.3,0.5
1.735,1,8.6,9,10.2,5.6,0.5
1.736,0.4,10,9.6,10.8,6.9,0.5
1.737,-0.1,11.2,10,11.3,7.9,0.5
1.738,-0.4,12,10.1,11.3,8.1,0.5
1.739,-0.2,12.3,9.7,10.6,7.4,0.5
1.74,0.9,11.8,8.5,9.2,5.9,0.5
1.741,2.5,10.6,6.7,7.2,4.1,0.5
1.742,4.2,9.1,4.7,5,2.3,0.5
1.743,5.1,7.7,3.1,3.1,0.9,0.5
1.744,5.4,6.9,2.5,1.9,0,0.5
1.745,5.6,6.8,3,1.4,-0.4,0.5
1.746,6.4,7.2,4.2,1.2,-0.6,0.5
1.747,7.9,7.6,5.6,1.1,-0.9,0.5
1.748,9.3,7.7,6.6,0.7,-1.5,0.5
1.749,9.4,7.4,7.3,0.1,-2,0.5
1.75,7.7,6.8,7.8,-0.3,-2.4,0.5
1.751,4.6,6.5,8.6,-0.4,-2.4,0.5
1.752,1.8,6.6,10,0.1,-1.9,0.5
1.753,0.9,7.2,11.9,0.9,-1.2,0.5
1.754,2.3,7.9,13.6,1.5,-0.7,0.5
1.755,5,8.5,14.8,1.5,-0.6,0.5
1.756,7,8.6,15,0.9,-1,0.5
1.757,7.1,8.2,14.5,-0.3,-1.8,0.5
1.758,5.2,7.7,13.8,-1.4,-2.5,0.5
1.759,2.9,7.2,13.3,-2,-2.8,0.5
1.76,2.1,7.1,13.5,-1.8,-2.6,0.5
1.761,3.6,7.4,13.9,-1,-2.1,0.5
1.762,6.8,7.7,14.2,0.2,-1.7,0.5
1.763,9.4,8,13.9,1.4,-1.5,0.5
1.764,9.7,7.9,12.6,2.3,-1.7,0.5
1.765,7.3,7.5,10.7,2.6,-2.1,0.5
1.766,3.8,6.8,8.7,2.5,-2.4,0.5
1.767,1.3,6.2,7.5,2,-2.4,0.5
1.768,1.5,6,7.2,1.5,-2.1,0.5
1.769,4.3,6.3,7.8,1,-1.6,0.5
1.77,8.1,7,8.7,0.6,-1.1,0.5
1.771,10.9,7.7,9.5,0.4,-0.7,0.5
1.772,11.6,8,9.8,0.2,-0.5,0.5
1.773,10.5,7.9,9.5,0,-0.5,0.5
1.774,8.9,7.3,9.1,-0.2,-0.7,0.5
1.775,8,6.5,8.8,-0.4,-1.1,0.5
1.776,8.2,5.7,8.7,-0.7,-1.7,0.5
1.777,9.3,5.2,8.9,-0.8,-2.3,0.5
1.778,10.2,5.1,9,-0.7,-2.8,0.5
1.779,10.2,5.1,8.7,-0.4,-3.1,0.5
1.78,9.3,5.2,8,0.2,-3,0.5
1.781,7.9,5.1,7.1,0.8,-2.8,0.5
1.782,6.6,4.7,6.5,1.1,-2.7,0.5
1.783,5.5,4.1,6.5,0.9,-2.9,0.5
1.784,4.5,3.7,6.9,0.4,-3.2,0.5
1.785,3.1,3.8,7.3,-0.3,-3.5,0.5
1.786,1.1,4.3,7.3,-0.9,-3.5,0.5
1.787,-1.1,5.1,6.6,-1.3,-3.1,0.5
1.788,-2.6,5.8,5.4,-1.4,-2.6,0.5
1.789,-2.4,6,4.3,-1.4,-2.3,0.5
1.79,-0.3,5.8,3.9,-1.6,-2.4,0.5
1.791,2.7,5.4,4.4,-2,-2.9,0.5
1.792,4.7,5.1,5.4,-2.7,-3.7,0.5
1.793,4.1,5.2,6.6,-3.3,-4.4,0.5
1.794,0.8,5.5,7.1,-3.7,-4.8,0.5
1.795,-3.7,5.6,7,-3.6,-4.7,0.5
1.796,-6.9,5.6,6.4,-3,-4.2,0.5
1.797,-6.7,5.5,6,-1.9,-3.5,0.5
1.798,-2.7,5.8,6.2,-0.4,-2.8,0.5
1.799,3.1,6.7,7.1,1.1,-2.3,0.5
1.8,7.9,8,8.3,2.2,-2,0.5
1.801,9.5,9.2,9.3,2.6,-2.1,0.5
1.802,8,9.7,9.6,2.1,-2.4,0.5
1.803,5,9,8.9,1,-2.9,0.5
1.804,2.8,7.6,7.4,-0.5,-3.5,0.5
1.805,2.8,6.2,5.4,-1.8,-4,0.5
1.806,4.7,5.3,3.6,-2.6,-4.2,0.5
1.807,7.1,5.2,2.2,-2.7,-4,0.5
1.808,8.4,5.9,1.6,-2.5,-3.5,0.5
1.809,8.2,6.9,1.9,-1.9,-2.7,0.5
1.81,7.1,8,3.1,-1.2,-1.6,0.5
1.811,6.1,9,4.9,-0.4,-0.6,0.5
1.812,5.7,10,6.8,0.3,0.3,0.5
1.813,5.9,11,8.4,0.9,0.9,0.5
1.814,6.2,11.9,9.4,1.3,1.1,0.5
1.815,6.2,12.5,9.6,1.4,0.9,0.5
1.816,6,12.8,9.3,1.3,0.5,0.5
1.817,5.6,12.6,8.9,1.2,0.1,0.5
1.818,5,12.2,8.7,1.3,-0.1,0.5
1.819,4,11.7,8.7,1.4,-0.3,0.5
1.82,3,11.1,9,1.4,-0.4,0.5
1.821,2.6,10.7,9.3,1.4,-0.6,0.5
1.822,3.5,10.4,9.5,1.3,-1,0.5
1.823,6.1,10.5,9.5,1.3,-1.2,0.5
1.824,10.1,10.8,9.5,1.6,-1.3,0.5
1.825,13.8,11.2,9.5,2.1,-1,0.5
1.826,15.6,11.4,9.4,2.4,-0.7,0.5
1.827,14.7,11,9.1,2.2,-0.6,0.5
1.828,11.7,10.2,8.6,1.6,-0.8,0.5
1.829,8.4,9.2,8,0.8,-1.5,0.5
1.83,6.9,8.5,7.6,0.5,-2.3,0.5
1.831,8.2,8.5,7.4,0.9,-2.9,0.5
1.832,11.6,9.3,7.8,2,-3.1,0.5
1.833,15,10.5,8.5,3.3,-2.7,0.5
1.834,16.5,11.7,9.3,4,-1.9,0.5
1.835,15.1,12.6,10,3.9,-1.1,0.5
1.836,11.7,13.2,10.3,3.1,-0.3,0.5
1.837,8.4,13.7,10.2,2.2,0.2,0.5
1.838,7.3,14.1,9.9,1.7,0.4,0.5
1.839,9.3,14.5,9.3,1.7,0.5,0.5
1.84,13.5,14.7,8.7,2,0.5,0.5
1.841,17.9,14.3,8,2.2,0.6,0.5
1.842,20.3,13.2,7.4,2,0.6,0.5
1.843,19.9,11.6,6.9,1.5,0.5,0.5
1.844,17.2,9.9,6.5,1,0.2,0.5
1.845,14,8.3,6.3,0.8,-0.4,0.5
1.846,12.3,7.2,6.1,0.7,-1.4,0.5
1.847,13,6.4,5.7,0.7,-2.6,0.5
1.848,15.5,5.9,5,0.4,-3.8,0.5
1.849,18.2,5.4,4,-0.4,-4.5,0.5
1.85,19.7,5.1,3,-1.5,-4.8,0.5
1.851,19,5,2.1,-2.5,-4.6,0.5
1.852,16.7,5.3,1.7,-3.3,-4.3,0.5
1.853,14.2,5.9,1.8,-3.6,-4.2,0.5
1.854,12.9,6.6,2.3,-3.7,-4.3,0.5
1.855,13.4,7.1,2.9,-3.5,-4.7,0.5
1.856,15.3,7.4,3.2,-3.3,-5,0.5
1.857,17.5,7.4,3.3,-3.1,-5,0.5
1.858,18.9,7.5,3.1,-2.8,-4.6,0.5
1.859,19.3,7.8,3,-2.6,-3.8,0.5
1.86,19.1,8.3,2.9,-2.4,-2.9,0.5
1.861,19.2,8.8,2.8,-2.3,-2.4,0.5
1.862,19.9,8.8,2.6,-2.4,-2.5,0.5
1.863,20.9,8.2,2.1,-2.7,-3.1,0.5
1.864,21.7,7.3,1.4,-2.9,-4.2,0.5
1.865,21.6,6.3,0.7,-3.2,-5.2,0.5
1.866,20.6,5.7,0.4,-3.4,-5.9,0.5
1.867,19.4,5.7,0.7,-3.6,-6.3,0.5
1.868,18.7,6.3,1.4,-3.8,-6.6,0.5
1.869,19.2,7,2.1,-4.4,-7.1,0.5
1.87,20.5,7.4,2.5,-5.2,-7.8,0.5
1.871,21.7,7.4,2.1,-6.3,-8.4,0.5
1.872,22.2,6.9,1.3,-7.4,-8.8,0.5
1.873,22.1,6.2,0.4,-8.2,-8.6,0.5
1.874,22.2,5.5,-0.2,-8.2,-7.9,0.5
1.875,23.3,5.2,-0.3,-7.5,-6.8,0.5
1.876,25.6,5.2,0.1,-6.2,-5.8,0.5
1.877,28.2,5.6,0.5,-4.7,-5,0.5
1.878,29.6,6,0.8,-3.8,-4.4,0.5
1.879,28.6,6.4,1,-3.5,-4,0.5
1.88,25.5,6.7,1.1,-3.8,-3.6,0.5
1.881,21.9,6.9,1.5,-4.5,-3.1,0.5
1.882,20,7.1,2.3,-5,-2.7,0.5
1.883,21.1,7.5,3.2,-5.1,-2.3,0.5
1.884,24.9,7.9,4.1,-4.8,-2.2,0.5
1.885,29.6,8.2,4.6,-4.2,-2.3,0.5
1.886,33.001,8.2,4.6,-3.6,-2.2,0.5
1.887,33.401,8,3.8,-3,-2,0.5
1.888,31.1,7.4,2.6,-2.4,-1.6,0.5
1.889,27.5,6.7,1.2,-1.8,-1,0.5
1.89,24.4,6,0.1,-1.3,-0.5,0.5
1.891,23.1,5.6,-0.6,-0.9,0,0.5
1.892,23.6,5.6,-0.5,-0.5,0.3,0.5
1.893,25.2,6.1,0.3,-0.3,0.3,0.5
1.894,26.9,6.8,1.3,-0.2,0.1,0.5
1.895,28.2,7.5,2.3,-0.4,-0.3,0.5
1.896,29.3,7.9,2.8,-0.8,-1,0.5
1.897,30.7,7.8,2.9,-1.6,-1.7,0.5
1.898,32.5,7.1,2.7,-2.4,-2.3,0.5
1.899,34.501,6.4,2.6,-2.9,-2.4,0.5
1.9,36.001,5.9,2.9,-2.8,-2,0.5
1.901,36.701,6.2,3.5,-1.9,-1.2,0.5
1.902,36.501,7,4.4,-0.7,-0.4,0.5
1.903,36.001,8,5.2,0.4,-0.1,0.5
1.904,35.701,8.5,5.6,0.9,-0.3,0.5
1.905,36.201,8.3,5.5,0.6,-1.1,0.5
1.906,37.201,7.3,4.7,-0.3,-2.1,0.5
1.907,37.801,6.1,3.5,-1.2,-2.7,0.5
1.908,37.401,5.1,2.2,-1.6,-2.5,0.5
1.909,35.601,4.8,1.4,-1.3,-1.6,0.5
1.91,33.401,5.3,1.4,-0.5,-0.3,0.5
1.911,31.8,6.4,2.5,0.4,0.6,0.5
1.912,32.1,7.7,4.3,1.1,0.6,0.5
1.913,34.301,8.7,6.2,1.1,-0.4,0.5
1.914,37.401,9.3,7.4,0.8,-1.9,0.5
1.915,39.801,9.4,7.6,0.3,-3.5,0.5
1.916,40.101,9.1,7,-0.1,-4.6,0.5
1.917,38.001,8.5,5.9,-0.2,-4.9,0.5
1.918,34.501,7.9,5.1,-0.2,-4.8,0.5
1.919,31.1,7.3,4.6,-0.2,-4.6,0.5
1.92,29.2,6.9,4.4,-0.6,-4.5,0.5
1.921,29.3,6.7,4.1,-1.3,-4.8,0.5
1.922,30.9,6.7,3.8,-2.3,-5.1,0.5
1.923,33.201,6.7,3.4,-3.1,-5.3,0.5
1.924,35.101,6.7,3.3,-3.5,-5.3,0.5
1.925,35.901,6.4,3.3,-3.5,-5.4,0.5
1.926,35.501,6,3,-3.3,-5.6,0.5
1.927,34.001,5.3,2.2,-3.2,-6.2,0.5
1.928,31.7,4.6,0.7,-3.6,-6.9,0.5
1.929,29.4,4,-1.3,-4.3,-7.5,0.5
1.93,27.8,3.9,-3,-5.1,-7.5,0.5
1.931,27.4,4.5,-3.7,-5.5,-6.8,0.5
1.932,28.3,5.8,-3.2,-5.1,-5.6,0.5
1.933,29.9,7.6,-1.6,-3.9,-4.1,0.5
1.934,31.3,9.5,0.3,-2.4,-2.6,0.5
1.935,31.6,10.9,2,-0.8,-1.4,0.5
1.936,30.6,11.9,3,0.3,-0.6,0.5
1.937,28.8,12.4,3.6,1,-0.2,0.5
1.938,27.1,12.9,3.8,1.6,-0.2,0.5
1.939,26,13.5,3.9,2.2,-0.5,0.5
1.94,25.8,14,3.7,2.8,-1.1,0.5
1.941,25.9,14,2.9,3.1,-1.9,0.5
1.942,25.9,13.1,1.5,2.9,-2.8,0.5
1.943,25.9,11.3,-0.5,1.9,-3.6,0.5
1.944,26,9,-2.5,0.6,-4.3,0.5
1.945,26.9,7,-3.8,-0.6,-4.8,0.5
1.946,28.4,5.7,-4,-1.4,-5.1,0.5
1.947,29.9,5.4,-3.2,-1.8,-5.4,0.5
1.948,30.7,5.7,-1.7,-2,-5.8,0.5
1.949,30.4,5.9,-0.4,-2.4,-6.3,0.5
1.95,29.3,5.8,0.1,-3.4,-6.9,0.5
1.951,28.5,5.1,-0.2,-4.6,-7.2,0.5
1.952,28.9,4.4,-1.3,-5.9,-7,0.5
1.953,30.6,4,-2.6,-6.8,-6.5,0.5
1.954,32.5,4.2,-3.5,-7.1,-5.9,0.5
1.955,33.101,4.8,-3.7,-6.9,-5.4,0.5
1.956,31.5,5.6,-3.3,-6.5,-5.3,0.5
1.957,27.8,6.1,-2.4,-6.1,-5.5,0.5
1.958,23.5,6.2,-1.5,-5.8,-5.8,0.5
1.959,20.4,5.8,-0.8,-5.5,-6,0.5
1.96,20,5.3,-0.5,-5.2,-5.9,0.5
1.961,22.3,4.8,-0.5,-4.8,-5.6,0.5
1.962,26.3,4.7,-0.7,-4.1,-5.2,0.5
1.963,30.3,4.9,-0.8,-3.5,-4.9,0.5
1.964,33.101,5.3,-1,-3.1,-4.8,0.5
1.965,34.401,5.7,-1.3,-3.1,-5.1,0.5
1.966,34.301,5.7,-2,-3.7,-5.6,0.5
1.967,33.601,5.3,-2.9,-4.6,-6.4,0.5
1.968,32.4,4.5,-4,-5.4,-7.3,0.5
1.969,31,3.6,-4.9,-5.8,-8.2,0.5
1.97,29.4,2.8,-5.5,-5.7,-8.7,0.5
1.971,28.2,2.3,-5.6,-5.2,-9,0.5
1.972,27.9,2.1,-5.3,-4.7,-8.9,0.5
1.973,29.1,2.3,-4.7,-4.5,-8.7,0.5
1.974,31.6,2.5,-4,-4.6,-8.5,0.5
1.975,34.501,2.9,-3.3,-4.9,-8.4,0.5
1.976,36.801,3.2,-2.5,-5.1,-8.3,0.5
1.977,37.601,3.5,-1.6,-5,-8.2,0.5
1.978,37.001,3.7,-0.6,-4.7,-7.8,0.5
1.979,35.801,4,0.4,-4.3,-7.2,0.5
1.98,35.301,4.3,1.3,-4.1,-6.5,0.5
1.981,35.901,4.8,1.8,-4,-5.9,0.5
1.982,37.301,5.4,1.7,-4.1,-5.4,0.5
1.983,38.401,5.8,1.3,-4.1,-5.2,0.5
1.984,38.301,5.9,0.5,-4.2,-5.1,0.5
1.985,36.801,5.6,-0.3,-4.5,-5.1,0.5
1.986,34.801,5.1,-0.9,-5,-5.2,0.5
1.987,33.501,4.7,-1.1,-5.7,-5.3,0.5
1.988,33.701,4.7,-0.9,-6.4,-5.5,0.5
1.989,34.901,5.1,-0.6,-6.9,-5.9,0.5
1.99,36.001,5.5,-0.2,-7,-6.4,0.5
1.991,35.801,5.6,-0.1,-6.7,-6.7,0.5
1.992,34.001,5.1,-0.5,-6.2,-6.7,0.5
1.993,31.3,4.1,-1.1,-5.7,-6.1,0.5
1.994,29,3.2,-1.9,-5.3,-5.1,0.5
1.995,28.3,2.9,-2.5,-5,-3.9,0.5
1.996,29.5,3.5,-2.6,-4.6,-2.8,0.5
1.997,32,4.6,-2.1,-4,-1.9,0.5
1.998,34.401,5.8,-1.3,-3.3,-1.3,0.5
1.999,35.901,6.6,-0.5,-2.7,-0.9,0.5
2,36.201,6.7,0.1,-2.4,-0.7,0.5
2.001,35.801,6.3,0.2,-2.6,-0.5,0.5
2.002,35.301,5.7,-0.2,-3.2,-0.3,0.5
2.003,35.201,5.2,-0.6,-4.1,-0.3,0.5
2.004,35.301,5,-0.8,-4.7,-0.4,0.5
2.005,35.501,5,-0.5,-4.7,-0.5,0.5
2.006,35.901,5.1,0.3,-4,-0.5,0.5
2.007,36.401,5.3,1.3,-2.7,-0.5,0.5
2.008,37.401,5.6,2.2,-1.4,-0.4,0.5
2.009,38.401,6.1,2.6,-0.5,-0.5,0.5
2.01,38.701,6.5,2.4,-0.4,-0.7,0.5
2.011,37.601,6.7,1.5,-0.8,-0.9,0.5
2.012,34.801,6.6,0.6,-1.4,-1,0.5
2.013,31.2,6.2,-0.1,-1.5,-0.7,0.5
2.014,28.5,5.7,0.1,-1.1,0,0.5
2.015,27.9,5.4,1.1,-0.2,0.8,0.5
2.016,29.9,5.5,2.5,0.6,1.6,0.5
2.017,33.501,5.7,3.6,1,1.8,0.5
2.018,36.901,6,3.6,0.7,1.3,0.5
2.019,38.701,5.9,2.4,0,0.5,0.5
2.02,38.201,5.5,0.5,-0.8,-0.3,0.5
2.021,36.401,4.9,-1.5,-1.2,-0.8,0.5
2.022,34.601,4.3,-2.9,-0.8,-0.7,0.5
2.023,34.001,3.7,-3.5,0,-0.3,0.5
2.024,34.801,3.3,-3.4,0.7,0,0.5
2.025,36.001,3,-3.1,1.1,-0.1,0.5
2.026,36.501,2.5,-2.9,0.8,-0.5,0.5
2.027,35.401,2.2,-2.7,0.3,-0.9,0.5
2.028,33.001,2.2,-2.3,-0.2,-1.2,0.5
2.029,30.1,2.6,-1.6,0,-1,0.5
2.03,28.2,3.4,-0.9,0.7,-0.5,0.5
2.031,28.1,4.4,-0.5,1.6,0.2,0.5
2.032,30.3,5.1,-0.5,2.3,0.9,0.5
2.033,34.201,5.4,-1,2.5,1.6,0.5
2.034,38.801,5.2,-1.7,2,2.4,0.5
2.035,43.301,4.8,-2.2,1.2,3.3,0.5
2.036,47.201,4.4,-2.4,0.4,4.1,0.5
2.037,50.401,4.1,-2.1,-0.1,4.8,0.5
2.038,53.301,4,-1.6,0.2,5.8,0.5
2.039,56.701,4.3,-0.6,1.4,7.6,0.5
2.04,61.301,5.1,1.3,3.5,10.9,0.5
2.041,67.801,7,4.2,6.6,15.7,0.5
2.042,76.601,9.8,8.1,10.1,21.5,0.5
2.043,87.401,13.6,12.3,13.5,26.9,0.5
2.044,99.102,17.3,15.6,16,30.7,0.5
2.045,109.802,20.2,17.1,17,32.1,0.5
2.046,117.402,21.4,16.5,16.5,31.1,0.5
2.047,120.402,20.8,14.4,15,28.8,0.5
2.048,118.502,18.9,11.5,13.1,26,0.5
2.049,112.602,16.5,8.8,11.1,23.3,0.5
2.05,104.402,14.4,6.5,9.3,20.4,0.5
2.051,95.101,12.9,4.4,7.2,16.8,0.5
2.052,85.201,11.5,1.8,4.4,11.7,0.5
2.053,74.301,9.6,-1.9,0.7,5.1,0.5
2.054,62.001,6.8,-6.5,-3.7,-2.3,0.5
2.055,48.301,3.2,-11.6,-8,-9.4,0.5
2.056,34.001,-0.8,-16.2,-11.6,-15.1,0.5
2.057,20.6,-4.4,-19.4,-13.8,-18.8,0.5
2.058,9.4,-6.7,-20.7,-14.7,-20.4,0.5
2.059,1.2,-7.7,-20.4,-14.6,-20.2,0.5
2.06,-4,-7.4,-19.1,-14.1,-18.9,0.5
2.061,-6.3,-6.4,-17.3,-13.5,-17.2,0.5
2.062,-6.2,-5.4,-15.4,-12.9,-15.5,0.5
2.063,-3.9,-4.5,-13.7,-12,-13.9,0.5
2.064,0.1,-3.7,-11.8,-10.7,-12.5,0.5
2.065,5.4,-3,-9.7,-9.1,-11,0.5
2.066,11.3,-2.2,-7.7,-7.6,-9.5,0.5
2.067,17.2,-1.4,-5.9,-6.4,-7.8,0.5
2.068,22.6,-0.6,-4.8,-5.9,-6.3,0.5
2.069,27.3,0.1,-4.4,-5.8,-5,0.5
2.07,31.3,0.7,-4.6,-5.7,-3.9,0.5
2.071,34.501,1.3,-4.7,-5.3,-3,0.5
2.072,37.201,2,-4.5,-4.4,-2.2,0.5
2.073,39.601,2.7,-4,-3.5,-1.4,0.5
2.074,41.801,3.4,-3.4,-2.8,-0.6,0.5
2.075,43.801,3.9,-3.3,-2.5,-0.2,0.5
2.076,45.701,4.1,-3.7,-2.5,-0.1,0.5
2.077,47.401,4.1,-4.7,-2.6,-0.6,0.5
2.078,48.801,4.1,-5.9,-2.5,-1.4,0.5
2.079,49.801,4.1,-6.8,-2.6,-2.5,0.5
2.08,50.301,4.2,-7.4,-2.9,-3.4,0.5
2.081,49.901,4.1,-7.5,-3.6,-3.8,0.5
2.082,48.601,4,-7.4,-4.4,-3.5,0.5
2.083,46.901,3.9,-7.1,-4.9,-2.6,0.5
2.084,45.301,3.9,-6.5,-4.8,-1.3,0.5
2.085,44.601,4.3,-5.9,-3.9,-0.3,0.5
2.086,45.101,4.9,-5.2,-2.9,0.1,0.5
2.087,46.201,5.6,-4.7,-2.3,-0.4,0.5
2.088,46.901,5.9,-4.8,-2.5,-1.6,0.5
2.089,46.201,5.9,-5.6,-3.4,-3,0.5
2.09,44.401,5.4,-6.9,-4.5,-4,0.5
2.091,42.401,4.7,-8.3,-5.1,-4.4,0.5
2.092,41.901,4.1,-9.6,-4.9,-4.1,0.5
2.093,43.301,3.6,-10.6,-3.8,-3.5,0.5
2.094,46.101,3.4,-11.1,-2.3,-3.1,0.5
2.095,48.401,3.4,-11.6,-0.9,-3,0.5
2.096,48.901,3.5,-11.9,-0.1,-3.1,0.5
2.097,47.201,3.8,-12.2,0.2,-3.3,0.5
2.098,44.501,4.3,-12.1,-0.2,-3.3,0.5
2.099,42.701,4.7,-11.8,-0.8,-3,0.5
2.1,43.001,4.9,-11.2,-1.4,-2.3,0.5
2.101,45.501,4.7,-10.9,-2,-1.6,0.5
2.102,48.601,4.3,-11.1,-2.3,-1,0.5
2.103,50.901,3.7,-11.8,-2.5,-0.7,0.5
2.104,51.401,3.3,-12.7,-2.7,-0.8,0.5
2.105,50.401,3.1,-13.4,-3,-1.2,0.5
2.106,49.201,3.3,-13.3,-3.5,-1.9,0.5
2.107,48.901,3.5,-12.5,-4.1,-2.7,0.5
2.108,49.701,3.6,-11.4,-4.6,-3.2,0.5
2.109,51.201,3.3,-10.7,-4.8,-3.3,0.5
2.11,52.101,3,-10.7,-4.7,-2.8,0.5
2.111,51.801,2.7,-11.5,-4.4,-1.9,0.5
2.112,50.301,2.6,-12.6,-4,-0.9,0.5
2.113,48.901,2.7,-13.3,-3.7,-0.2,0.5
2.114,48.801,2.9,-13.3,-3.7,0.2,0.5
2.115,50.901,2.8,-12.6,-3.6,0.1,0.5
2.116,54.601,2.5,-11.7,-3.7,-0.2,0.5
2.117,58.401,2.1,-11,-3.6,-0.7,0.5
2.118,60.401,1.8,-10.7,-3.6,-1.2,0.5
2.119,59.301,1.8,-10.7,-3.7,-1.7,0.5
2.12,55.401,2.1,-10.9,-3.7,-2.2,0.5
2.121,50.301,2.5,-10.8,-3.7,-2.6,0.5
2.122,45.901,2.9,-10.5,-3.5,-2.6,0.5
2.123,43.901,3.1,-9.9,-3.1,-2.3,0.5
2.124,44.501,3.4,-9.3,-2.5,-1.8,0.5
2.125,47.201,3.7,-8.7,-2.1,-1.4,0.5
2.126,50.401,4.3,-8.2,-2,-1.1,0.5
2.127,53.201,5,-7.9,-2.3,-1.2,0.5
2.128,55.001,5.5,-7.7,-2.7,-1.4,0.5
2.129,55.801,5.9,-7.6,-3.1,-1.4,0.5
2.13,56.201,6.1,-7.7,-3,-1,0.5
2.131,56.401,6.5,-7.7,-2.6,0,0.5
2.132,56.801,7.1,-7.6,-1.8,1.3,0.5
2.133,57.301,8.1,-7.2,-1.2,2.6,0.5
2.134,57.801,9.2,-6.6,-1,3.4,0.5
2.135,58.201,9.9,-6.1,-1.4,3.7,0.5
2.136,58.301,10.1,-6,-2.2,3.5,0.5
2.137,58.001,9.8,-6.4,-2.9,3.1,0.5
2.138,57.101,9.4,-7.1,-3.2,2.7,0.5
2.139,55.901,9.1,-7.9,-2.9,2.5,0.5
2.14,54.601,9.3,-8.4,-2,2.5,0.5
2.141,53.401,9.9,-8.4,-1,2.5,0.5
2.142,52.601,10.6,-8,-0.1,2.6,0.5
2.143,52.201,11.4,-7.4,0.9,2.9,0.5
2.144,52.001,12.3,-6.7,2.1,3.6,0.5
2.145,52.201,13.4,-5.7,3.9,5,0.5
2.146,52.501,15.1,-4.4,6.2,7.2,0.5
2.147,53.001,17.2,-2.5,8.8,10,0.5
2.148,53.401,19.2,-0.1,11.4,13,0.5
2.149,53.501,20.5,2.3,13.6,15.8,0.5
2.15,53.101,20.7,4.2,15.6,17.9,0.5
2.151,52.001,19.9,5.2,17.3,19.5,0.5
2.152,50.401,18.3,5.1,18.9,20.7,0.5
2.153,48.501,16.2,4.2,20.1,22,0.5
2.154,46.701,13.8,2.9,20.8,23.7,0.5
2.155,45.301,11,1.9,20.8,26.1,0.5
2.156,44.501,7.6,1.4,20.5,29.1,0.5
2.157,44.301,3.5,1.5,20.1,32.2,0.5
2.158,44.801,-1.1,1.9,19.9,35.201,0.5
2.159,45.901,-6,2.3,20,37.701,0.5
2.16,47.601,-11.1,2,20.1,39.501,0.5
2.161,49.501,-16.4,0.8,19.7,40.801,0.5
2.162,51.101,-22.1,-1.5,18.5,41.701,0.5
2.163,52.001,-28.2,-4.4,16.9,42.601,0.5
2.164,52.001,-34.301,-7.5,15.1,43.501,0.5
2.165,51.301,-40.001,-10.2,13.6,44.301,0.5
2.166,50.101,-44.701,-12.1,12.1,44.801,0.5
2.167,49.001,-48.601,-13.4,10.5,44.501,0.5
2.168,48.201,-52.001,-14.3,8.2,43.401,0.5
2.169,47.701,-55.401,-15.3,5.3,41.501,0.5
2.17,47.501,-59.001,-16.8,1.9,39.101,0.5
2.171,47.601,-62.801,-18.7,-1.2,36.901,0.5
2.172,47.901,-66.001,-20.6,-3.3,35.001,0.5
2.173,48.401,-67.901,-22.2,-4.1,33.801,0.5
2.174,49.101,-68.201,-22.9,-3.6,33.401,0.5
2.175,49.601,-67.001,-22.6,-2,33.601,0.5
2.176,49.501,-64.701,-21.5,-0.1,34.001,0.5
2.177,48.701,-61.901,-20.1,1.5,34.101,0.5
2.178,47.501,-58.901,-18.8,2.2,33.301,0.5
2.179,46.601,-55.801,-17.9,1.8,31,0.5
2.18,46.601,-52.301,-17.6,0.3,27,0.5
2.181,47.901,-48.201,-17.8,-1.7,21.7,0.5
2.182,50.301,-43.401,-18.3,-3.7,15.7,0.5
2.183,53.001,-38.001,-18.6,-5.2,9.8,0.5
2.184,55.201,-32.3,-18.6,-6.1,4.5,0.5
2.185,56.401,-26.7,-18.3,-6.7,0.1,0.5
2.186,56.701,-21.5,-17.7,-7.2,-3.6,0.5
2.187,56.501,-17,-17.3,-8.2,-6.8,0.5
2.188,56.801,-13.3,-16.9,-9.7,-9.4,0.5
2.189,58.201,-10.6,-16.7,-11.4,-11.3,0.5
2.19,60.501,-8.8,-16.3,-12.8,-12.4,0.5
2.191,63.201,-7.5,-15.6,-13.6,-12.6,0.5
2.192,65.201,-6.3,-14.5,-13.9,-12.3,0.5
2.193,65.801,-5.1,-13.2,-13.8,-12.2,0.5
2.194,64.801,-3.6,-12.2,-13.9,-12.6,0.5
2.195,62.901,-2.2,-11.9,-14.4,-13.7,0.5
2.196,60.801,-0.9,-12.6,-15.3,-15.4,0.5
2.197,59.401,-0.2,-14.1,-16.6,-17,0.5
2.198,58.901,0,-15.9,-17.6,-18.4,0.5
2.199,59.101,-0.3,-17.4,-18.1,-19.4,0.5
2.2,59.601,-0.7,-18.6,-17.8,-20.1,0.5
2.201,60.101,-1.1,-19.3,-17,-20.6,0.5
2.202,60.501,-1.3,-19.8,-16,-21.2,0.5
2.203,61.201,-1.3,-20,-15.3,-21.7,0.5
2.204,62.201,-1.2,-19.8,-15.2,-22,0.5
2.205,63.801,-1.1,-19.1,-15.4,-21.8,0.5
2.206,65.401,-1.1,-17.9,-15.8,-20.9,0.5
2.207,66.501,-1.1,-16.4,-15.8,-19.6,0.5
2.208,66.501,-1.2,-15.3,-15.2,-18.1,0.5
2.209,65.101,-1.2,-14.8,-14.2,-16.7,0.5
2.21,62.401,-1.1,-15.1,-12.9,-15.4,0.5
2.211,59.401,-0.8,-15.5,-11.5,-14.1,0.5
2.212,57.201,-0.3,-15.4,-10.1,-12.8,0.5
2.213,56.601,0.5,-14.5,-8.7,-11.3,0.5
2.214,57.801,1.2,-12.8,-7.2,-9.7,0.5
2.215,60.101,1.6,-11.1,-5.7,-8.1,0.5
2.216,62.501,1.6,-9.9,-4.4,-6.9,0.5
2.217,64.001,1.1,-9.8,-3.5,-5.9,0.5
2.218,64.601,0.5,-10.3,-2.9,-5.2,0.5
2.219,64.701,0.2,-10.8,-2.5,-4.4,0.5
2.22,65.001,0.7,-10.7,-2.2,-3.4,0.5
2.221,65.501,2,-9.5,-1.7,-2.1,0.5
2.222,65.701,3.8,-7.6,-1.2,-0.6,0.5
2.223,64.501,5.5,-5.5,-0.8,0.9,0.5
2.224,61.501,6.7,-3.7,-0.4,2,0.5
2.225,57.601,7.3,-2.5,0.1,2.6,0.5
2.226,54.301,7.3,-1.8,0.7,2.8,0.5
2.227,53.301,7.3,-1.3,1.5,2.5,0.5
2.228,55.601,7.4,-0.7,2.3,2.2,0.5
2.229,60.201,7.5,-0.2,2.8,1.8,0.5
2.23,65.001,7.2,0,2.6,1.8,0.5
2.231,68.001,6.4,-0.4,1.9,1.9,0.5
2.232,68.101,5.2,-1.3,0.8,2,0.5
2.233,65.601,3.9,-2.6,-0.2,1.9,0.5
2.234,62.301,3,-3.9,-0.7,1.5,0.5
2.235,60.101,2.7,-4.7,-0.8,0.6,0.5
2.236,60.001,2.7,-5,-0.6,-0.4,0.5
2.237,61.601,2.5,-4.7,-0.6,-1.4,0.5
2.238,63.801,1.8,-4.2,-1,-2.1,0.5
2.239,65.101,0.5,-3.8,-1.6,-2.4,0.5
2.24,64.801,-0.7,-3.7,-2.1,-2.4,0.5
2.241,63.101,-1.5,-4.1,-2.1,-2.2,0.5
2.242,61.201,-1.5,-4.7,-1.8,-1.8,0.5
2.243,60.201,-0.8,-5.5,-1.5,-1.4,0.5
2.244,60.901,0.1,-6.1,-1.5,-0.8,0.5
2.245,63.001,0.7,-6.3,-1.9,-0.1,0.5
2.246,65.401,0.8,-6.1,-2.4,0.6,0.5
2.247,67.201,0.6,-5.7,-2.6,1,0.5
2.248,67.401,0.3,-5.5,-2.3,1.1,0.5
2.249,65.901,0,-5.8,-1.6,0.7,0.5
2.25,63.501,-0.5,-6.4,-1,0.2,0.5
2.251,60.901,-1.4,-7.1,-1,-0.3,0.5
2.252,59.101,-2.6,-7.3,-1.5,-0.5,0.5
2.253,58.401,-3.8,-6.6,-2.3,-0.2,0.5
2.254,58.801,-4.4,-5,-2.8,0.3,0.5
2.255,59.701,-4,-3,-2.6,0.8,0.5
2.256,60.501,-2.7,-1.1,-1.7,1,0.5
2.257,60.901,-0.9,0.3,-0.5,0.9,0.5
2.258,61.101,0.5,0.9,0.6,0.7,0.5
2.259,61.501,1.1,1,1.1,0.5,0.5
2.26,62.201,0.8,0.8,1.2,0.5,0.5
2.261,63.301,0.1,0.4,1.1,0.6,0.5
2.262,64.401,-0.5,0.1,1.2,0.8,0.5
2.263,65.401,-0.5,-0.1,1.8,1.1,0.5
2.264,66.401,0.2,-0.2,2.8,1.2,0.5
2.265,67.701,1.3,-0.1,3.7,1.3,0.5
2.266,69.401,2.2,0.1,4.2,1,0.5
2.267,71.201,2.6,0.1,4,0.4,0.5
2.268,72.201,2.1,-0.1,3.2,-0.4,0.5
2.269,71.501,1,-0.6,2,-1.3,0.5
2.27,68.801,-0.4,-1.1,0.6,-2.2,0.5
2.271,64.901,-1.7,-1.2,-0.6,-2.9,0.5
2.272,61.501,-2.6,-0.7,-1.5,-3.2,0.5
2.273,60.101,-3.1,0.4,-2.1,-3.2,0.5
2.274,61.201,-3.3,1.5,-2.2,-2.9,0.5
2.275,64.301,-3.4,2.3,-2,-2.6,0.5
2.276,67.701,-3.4,2.4,-1.6,-2.2,0.5
2.277,70.101,-3.4,1.9,-1.1,-1.8,0.5
2.278,71.001,-3.3,1.3,-0.6,-1.4,0.5
2.279,70.801,-3.1,1,0,-1.1,0.5
2.28,70.501,-2.6,0.9,0.5,-0.9,0.5
2.281,70.701,-1.9,0.9,1,-0.6,0.5
2.282,71.501,-1.4,0.6,1.5,-0.3,0.5
2.283,72.201,-1.1,-0.2,1.9,0.1,0.5
2.284,72.501,-1.2,-1.2,2.3,0.3,0.5
2.285,72.201,-1.6,-2,2.3,0.3,0.5
2.286,71.701,-2.1,-2.2,2.1,0.1,0.5
2.287,71.301,-2.5,-1.8,1.7,-0.2,0.5
2.288,71.201,-2.6,-1.2,1,-0.4,0.5
2.289,71.201,-2.4,-1.2,0.5,-0.4,0.5
2.29,70.801,-2.2,-1.9,0.1,-0.2,0.5
2.291,70.401,-2.1,-3.4,0,0.3,0.5
2.292,70.101,-2.3,-4.9,0.3,0.8,0.5
2.293,70.401,-2.5,-5.6,0.9,1.3,0.5
2.294,71.201,-2.5,-5.1,1.7,1.6,0.5
2.295,72.201,-2,-3.7,2.4,1.7,0.5
2.296,72.901,-1.5,-2.2,2.7,1.6,0.5
2.297,73.001,-1.1,-1.3,2.6,1.4,0.5
2.298,72.601,-1.3,-1.4,1.8,1.2,0.5
2.299,72.401,-2,-2.1,0.8,1.1,0.5
2.3,72.501,-3,-2.9,-0.3,1.3,0.5
2.301,73.201,-3.7,-3.1,-1.1,1.6,0.5
2.302,73.901,-3.7,-2.7,-1.6,1.9,0.5
2.303,74.301,-3.3,-2.2,-1.7,1.9,0.5
2.304,74.101,-2.9,-2.1,-1.8,1.5,0.5
2.305,73.101,-3.1,-2.7,-1.9,0.9,0.5
2.306,71.601,-3.7,-3.6,-2,0.3,0.5
2.307,69.701,-4.5,-4.5,-1.8,0.2,0.5
2.308,68.001,-4.6,-4.5,-1.2,0.8,0.5
2.309,67.101,-4,-3.7,-0.2,2,0.5
2.31,67.701,-2.6,-2.1,0.9,3.3,0.5
2.311,69.701,-1.2,-0.3,1.6,4.2,0.5
2.312,72.401,-0.4,1.1,1.7,4.5,0.5
2.313,74.601,-0.5,1.9,1.3,4.2,0.5
2.314,74.901,-1.3,1.9,0.6,3.6,0.5
2.315,73.201,-2.3,1.5,-0.1,3,0.5
2.316,70.701,-3,0.8,-0.7,2.7,0.5
2.317,69.101,-3.3,0,-1.1,2.5,0.5
2.318,69.901,-3.5,-0.7,-1.6,2.3,0.5
2.319,73.101,-3.8,-1.3,-2.1,1.8,0.5
2.32,76.901,-4.4,-1.7,-2.5,1.2,0.5
2.321,79.101,-5.2,-1.8,-2.5,0.8,0.5
2.322,78.501,-5.9,-1.8,-2,0.9,0.5
2.323,75.501,-6.3,-1.6,-1.1,1.6,0.5
2.324,72.101,-6.3,-1.3,0,2.7,0.5
2.325,70.401,-6.2,-1.1,1,3.9,0.5
2.326,71.201,-6,-1,1.6,4.7,0.5
2.327,73.801,-5.8,-1.1,2,5,0.5
2.328,76.401,-5.3,-1.3,2.1,4.9,0.5
2.329,77.401,-4.6,-1.4,2.3,4.8,0.5
2.33,76.601,-3.8,-1.4,2.4,5,0.5
2.331,74.701,-3,-1.3,2.6,5.7,0.5
2.332,73.001,-2.6,-1.1,2.6,7,0.5
2.333,72.501,-2.6,-0.7,2.7,8.6,0.5
2.334,73.301,-2.6,-0.3,2.7,10.2,0.5
2.335,74.901,-2.5,0.2,2.8,11.4,0.5
2.336,76.701,-2.2,0.5,2.7,12,0.5
2.337,78.101,-2,0.4,2.4,11.7,0.5
2.338,78.701,-2.3,-0.3,1.7,10.9,0.5
2.339,78.201,-3.5,-1.7,0.8,9.9,0.5
2.34,76.401,-5.4,-3.3,0,9.3,0.5
2.341,73.701,-7.5,-4.5,-0.3,9.3,0.5
2.342,70.701,-8.8,-4.9,0,9.7,0.5
2.343,68.601,-9.1,-4.3,0.7,10.1,0.5
2.344,68.201,-8.3,-3.4,1.3,10.2,0.5
2.345,69.801,-7.3,-2.7,1.4,9.7,0.5
2.346,72.701,-6.7,-3,0.7,8.7,0.5
2.347,75.601,-7,-4.3,-0.4,7.5,0.5
2.348,77.601,-8.1,-5.9,-1.5,6.4,0.5
2.349,78.201,-9.5,-7.1,-2.1,5.7,0.5
2.35,77.901,-10.6,-7.4,-2.1,5.3,0.5
2.351,77.201,-11.3,-6.8,-1.8,5,0.5
2.352,76.801,-11.8,-5.7,-1.4,4.8,0.5
2.353,76.601,-12.2,-4.7,-1.3,4.7,0.5
2.354,76.701,-12.7,-4.2,-1.5,4.8,0.5
2.355,76.901,-13.4,-4.1,-1.6,5.2,0.5
2.356,77.401,-14.1,-4.2,-1.5,5.8,0.5
2.357,78.201,-14.7,-4.4,-1.2,6.5,0.5
2.358,79.201,-15.2,-4.5,-0.6,7.2,0.5
2.359,79.901,-15.8,-4.7,0.1,8,0.5
2.36,80.101,-16.4,-4.9,0.8,9,0.5
2.361,79.601,-16.8,-4.9,1.6,10.2,0.5
2.362,78.901,-16.9,-4.8,2.6,11.3,0.5
2.363,78.401,-16.5,-4.5,3.5,12.2,0.5
2.364,78.801,-15.7,-4.4,4.2,12.4,0.5
2.365,80.001,-14.9,-4.8,4.5,12,0.5
2.366,81.601,-14.5,-5.7,4.1,11.3,0.5
2.367,83.201,-14.7,-6.9,3.4,10.7,0.5
2.368,84.201,-15.2,-8,2.6,10.3,0.5
2.369,84.801,-15.9,-8.6,2,10.4,0.5
2.37,85.301,-16.5,-8.6,1.6,10.6,0.5
2.371,85.701,-16.9,-8.2,1.4,10.9,0.5
2.372,86.101,-17.2,-7.5,1.3,11.2,0.5
2.373,86.101,-17.3,-7.1,1.1,11.5,0.5
2.374,85.801,-17.4,-7,1,11.8,0.5
2.375,85.301,-17.3,-7.2,0.9,12.2,0.5
2.376,84.801,-17.1,-7.7,1,12.3,0.5
2.377,84.601,-17,-8.3,1.2,12.2,0.5
2.378,84.501,-17,-8.9,1.4,11.8,0.5
2.379,84.301,-17.2,-9.3,1.4,11.5,0.5
2.38,83.701,-17.3,-9.2,1.3,11.6,0.5
2.381,82.701,-17.3,-8.7,1.3,12.2,0.5
2.382,81.701,-17.1,-8,1.3,13,0.5
2.383,81.001,-16.9,-7.3,1.3,13.6,0.5
2.384,80.901,-17,-7,1.2,13.8,0.5
2.385,81.101,-17.6,-7.3,0.9,13.4,0.5
2.386,80.801,-18.7,-7.8,0.4,13,0.5
2.387,79.801,-19.9,-8.3,-0.2,12.6,0.5
2.388,78.001,-20.9,-8.6,-0.6,12.6,0.5
2.389,76.201,-21.3,-8.8,-0.7,12.7,0.5
2.39,75.301,-21.3,-9.1,-0.3,12.6,0.5
2.391,76.001,-21.1,-9.7,0.4,12.4,0.5
2.392,78.101,-21,-10.6,1.4,12,0.5
2.393,80.801,-21,-11.6,2.3,11.9,0.5
2.394,82.601,-21.1,-12.4,3.1,12.1,0.5
2.395,82.501,-21,-12.9,3.7,12.7,0.5
2.396,80.201,-20.9,-13.3,4,13.2,0.5
2.397,76.701,-20.9,-13.7,4.1,13.3,0.5
2.398,73.701,-21.2,-14.2,3.8,12.8,0.5
2.399,72.601,-21.7,-14.7,3.2,11.7,0.5
2.4,73.901,-22.3,-14.8,2.4,10.5,0.5
2.401,76.601,-22.6,-14.5,1.6,9.5,0.5
2.402,79.201,-22.6,-14.1,1.1,9,0.5
2.403,80.001,-22.3,-13.7,1.1,9.1,0.5
2.404,78.601,-21.9,-13.9,1.5,9.5,0.5
2.405,75.901,-21.7,-14.4,2.2,9.9,0.5
2.406,73.701,-21.7,-15,2.9,10.2,0.5
2.407,72.901,-21.6,-15.1,3.4,10.3,0.5
2.408,73.801,-21.3,-14.6,3.4,10.3,0.5
2.409,75.201,-20.8,-13.4,2.9,10.1,0.5
2.41,75.801,-20.5,-12.3,2.2,9.9,0.5
2.411,75.001,-20.5,-11.5,1.6,9.7,0.5
2.412,72.901,-21,-11.4,1.2,9.4,0.5
2.413,70.501,-21.7,-11.7,1.2,9,0.5
2.414,69.001,-22.1,-12,1.6,8.8,0.5
2.415,68.601,-22,-12,2.1,8.8,0.5
2.416,69.001,-21.4,-11.7,2.6,9,0.5
2.417,69.501,-20.6,-11.3,2.9,9.2,0.5
2.418,69.801,-19.8,-11.1,3.2,9.3,0.5
2.419,69.901,-19.4,-11.1,3.3,9.1,0.5
2.42,70.201,-19.3,-11.1,3.3,8.5,0.5
2.421,71.001,-19.3,-11.1,3.1,7.7,0.5
2.422,72.201,-19,-10.7,2.8,7.1,0.5
2.423,73.301,-18.4,-10.1,2.3,6.9,0.5
2.424,73.801,-17.5,-9.2,2,7,0.5
2.425,73.501,-16.4,-8.5,2.4,7.5,0.5
2.426,72.401,-15.2,-8,3.5,8.1,0.5
2.427,71.001,-14,-7.7,5.3,8.7,0.5
2.428,69.901,-12.9,-7.6,7.2,9.2,0.5
2.429,69.601,-11.8,-7.6,8.6,9.5,0.5
2.43,70.101,-10.8,-7.7,9,9.5,0.5
2.431,71.201,-10.1,-7.9,8.5,9.2,0.5
2.432,72.401,-9.7,-8.3,7.5,8.5,0.5
2.433,73.201,-9.5,-9.1,6.7,7.7,0.5
2.434,73.001,-9.2,-9.9,6.4,7.1,0.5
2.435,71.901,-8.6,-10.4,6.8,6.9,0.5
2.436,70.201,-7.3,-10.4,7.5,7.4,0.5
2.437,68.401,-5.4,-9.8,8.4,8.4,0.5
2.438,67.101,-3.1,-8.5,9.1,9.4,0.5
2.439,66.701,-0.9,-7.1,9.7,10.1,0.5
2.44,67.101,0.8,-6.1,10.2,10.5,0.5
2.441,68.401,1.6,-5.8,10.7,10.5,0.5
2.442,70.101,1.7,-6.1,11.1,10.3,0.5
2.443,71.901,1.5,-6.9,11.2,10,0.5
2.444,73.301,1.5,-7.6,10.9,9.6,0.5
2.445,73.901,1.8,-8.1,10.3,9,0.5
2.446,73.801,2.5,-8.5,9.2,8.1,0.5
2.447,73.101,3,-8.9,7.9,7,0.5
2.448,72.201,2.9,-9.6,6.6,6.1,0.5
2.449,71.601,2.2,-10.5,5.3,5.4,0.5
2.45,71.301,1.2,-11.1,4.3,5,0.5
2.451,71.001,0.3,-11.1,3.7,4.8,0.5
2.452,70.401,0.2,-10.6,3.4,4.6,0.5
2.453,69.201,0.7,-9.6,3.2,4.1,0.5
2.454,67.901,1.8,-8.8,3.1,3.5,0.5
2.455,67.301,2.8,-8.6,3,3,0.5
2.456,67.801,3.5,-9.2,2.7,2.6,0.5
2.457,69.401,3.8,-10.3,2.6,2.3,0.5
2.458,71.201,3.8,-11.4,2.8,2.1,0.5
2.459,72.101,3.9,-11.9,3.3,1.8,0.5
2.46,71.401,3.9,-11.6,4.2,1.4,0.5
2.461,69.501,4.1,-10.7,5.1,0.9,0.5
2.462,67.801,4.2,-9.5,5.9,0.6,0.5
2.463,67.401,4.1,-8.6,6.1,0.4,0.5
2.464,68.901,3.9,-8.1,5.9,0.3,0.5
2.465,71.701,3.7,-8.1,5.2,0.2,0.5
2.466,74.001,3.6,-8.2,4.4,-0.2,0.5
2.467,74.601,3.7,-8,3.8,-0.8,0.5
2.468,73.001,3.8,-7.4,3.7,-1.6,0.5
2.469,70.101,3.9,-6.5,4,-2.3,0.5
2.47,67.401,4,-5.6,4.4,-2.7,0.5
2.471,65.901,4,-4.9,4.6,-2.8,0.5
2.472,65.801,3.9,-4.5,4.4,-2.9,0.5
2.473,66.401,3.8,-4.5,3.9,-3.1,0.5
2.474,67.001,3.6,-4.8,3.3,-3.6,0.5
2.475,67.301,3.4,-5.6,2.8,-4.3,0.5
2.476,67.601,3.2,-6.7,2.7,-5,0.5
2.477,68.101,3.1,-7.9,2.9,-5.5,0.5
2.478,69.101,3.2,-8.9,3.2,-5.5,0.5
2.479,70.201,3.4,-9.2,3.4,-5.1,0.5
2.48,70.901,3.8,-8.8,3.4,-4.4,0.5
2.481,70.901,4.2,-7.8,3.2,-3.8,0.5
2.482,70.101,4.7,-6.7,2.7,-3.4,0.5
2.483,68.901,5.1,-6.1,2,-3.3,0.5
2.484,67.801,5.2,-6.4,1.3,-3.3,0.5
2.485,67.401,5.1,-7.5,0.6,-3.2,0.5
2.486,67.901,4.9,-8.9,0,-3.1,0.5
2.487,69.301,4.7,-10,-0.2,-3.1,0.5
2.488,71.501,4.5,-10.4,-0.3,-3.5,0.5
2.489,73.701,4.3,-10.3,-0.5,-4.5,0.5
2.49,75.001,4,-10,-1.1,-6,0.5
2.491,74.501,3.6,-10,-2.4,-7.7,0.5
2.492,72.201,3.1,-10.2,-4,-9.2,0.5
2.493,68.601,2.6,-10.7,-5.5,-10.4,0.5
2.494,65.101,2.1,-11.2,-6.5,-11.2,0.5
2.495,62.801,1.6,-11.5,-6.7,-11.6,0.5
2.496,62.301,1.2,-11.6,-6.2,-11.8,0.5
2.497,63.401,0.9,-11.5,-5.2,-11.5,0.5
2.498,65.601,0.8,-10.9,-4,-10.6,0.5
2.499,68.801,1.1,-9.8,-2.9,-9,0.5
2.5,72.801,1.7,-8.3,-1.7,-6.8,0.5
2.501,77.601,2.7,-6.7,-0.7,-4.4,0.5
2.502,82.701,3.9,-5.4,0.3,-2.2,0.5
2.503,87.301,5,-4.8,1.2,-0.1,0.5
2.504,90.501,6,-4.7,2.3,2.1,0.5
2.505,92.701,7.2,-4.1,4.1,5.3,0.5
2.506,95.401,8.8,-2.4,7,9.9,0.5
2.507,100.902,11.4,1,11.1,16.1,0.5
2.508,110.902,14.8,5.8,15.8,22.7,0.5
2.509,125.102,18.5,10.5,19.9,28.4,0.5
2.51,140.702,21.6,13.9,22.4,31.5,0.5
2.511,154.002,23.5,14.8,22.4,31.3,0.5
2.512,161.402,23.6,13.2,19.9,28.1,0.5
2.513,161.402,22,9.9,15.9,23.1,0.5
2.514,154.902,19.3,6,11.6,17.8,0.5
2.515,144.202,16.2,2.4,7.9,13.2,0.5
2.516,132.202,13.1,-0.6,5.1,9.4,0.5
2.517,120.602,10.1,-3.4,2.7,5.8,0.5
2.518,109.402,7.2,-6.4,0.2,1.6,0.5
2.519,98.001,4.3,-9.8,-2.9,-3.7,0.5
2.52,85.601,1.4,-13.6,-6.4,-9.7,0.5
2.521,72.201,-1.3,-17,-9.7,-15.4,0.5
2.522,58.501,-3.4,-19.3,-12.1,-20,0.5
2.523,45.701,-4.8,-20.4,-13.2,-22.6,0.5
2.524,35.101,-5.4,-20.1,-13.2,-23.4,0.5
2.525,27.2,-5.3,-18.8,-12.3,-22.5,0.5
2.526,22,-4.6,-17.3,-11.2,-20.7,0.5
2.527,19.5,-3.5,-15.7,-10.2,-18.6,0.5
2.528,19.2,-2.4,-14.4,-9.4,-16.5,0.5
2.529,21,-1.2,-13,-8.6,-14.6,0.5
2.53,24.8,-0.1,-11.2,-7.7,-12.8,0.5
2.531,30,0.9,-8.9,-6.6,-11,0.5
2.532,36.301,1.7,-6.2,-5.4,-9.3,0.5
2.533,42.701,2.5,-3.8,-4.2,-7.7,0.5
2.534,48.701,3.4,-2.1,-3.4,-6.5,0.5
2.535,53.801,4.4,-1.6,-3,-5.9,0.5
2.536,57.801,5.4,-2.2,-3.1,-6.1,0.5
2.537,60.801,6.3,-3.6,-3.5,-6.9,0.5
2.538,63.101,6.8,-4.9,-4.1,-7.8,0.5
2.539,64.901,6.9,-5.7,-4.4,-8.3,0.5
2.54,66.301,6.7,-5.6,-4.4,-8,0.5
2.541,67.301,6.5,-4.7,-3.7,-7.1,0.5
2.542,68.001,6.4,-3.5,-2.7,-5.9,0.5
2.543,68.201,6.5,-2.1,-1.6,-5,0.5
2.544,68.001,6.9,-1,-0.8,-4.5,0.5
2.545,67.401,7.3,0.1,-0.4,-4.4,0.5
2.546,66.901,7.8,1,-0.5,-4.2,0.5
2.547,66.901,8.3,1.9,-0.9,-3.8,0.5
2.548,67.701,8.6,2.8,-1.4,-3.1,0.5
2.549,69.401,8.9,3.4,-2,-2.5,0.5
2.55,71.201,8.9,3.7,-2.6,-2.3,0.5
2.551,72.301,8.7,3.5,-3.4,-2.9,0.5
2.552,71.701,8.3,2.8,-4.3,-4.1,0.5
2.553,69.301,7.6,1.9,-5.1,-5.4,0.5
2.554,65.701,6.6,0.9,-5.7,-6.4,0.5
2.555,62.701,5.4,-0.2,-6,-7,0.5
2.556,61.601,4.3,-1.1,-5.9,-7.2,0.5
2.557,63.301,3.3,-1.9,-5.6,-7.2,0.5
2.558,67.201,2.7,-2.4,-5.2,-7.1,0.5
2.559,71.701,2.6,-2.6,-4.8,-6.9,0.5
2.56,74.901,2.8,-2.6,-4.2,-6.4,0.5
2.561,75.601,3.1,-2.4,-3.6,-5.6,0.5
2.562,74.101,3.4,-2.2,-3.1,-4.8,0.5
2.563,71.401,3.6,-2,-2.8,-4.1,0.5
2.564,69.101,3.6,-1.6,-2.8,-3.8,0.5
2.565,68.201,3.7,-1.2,-3.1,-4,0.5
2.566,68.601,3.9,-0.6,-3.3,-4.5,0.5
2.567,69.501,4.3,0.1,-3.5,-5.1,0.5
2.568,70.301,4.7,0.5,-3.5,-5.4,0.5
2.569,70.601,5,0.5,-3.3,-5.6,0.5
2.57,70.601,5.1,0,-3.2,-5.8,0.5
2.571,70.501,5.2,-0.8,-3.2,-6.1,0.5
2.572,70.501,5.3,-1.8,-3.3,-6.7,0.5
2.573,70.001,5.4,-2.8,-3.4,-7.5,0.5
2.574,69.001,5.4,-3.5,-3.3,-8.2,0.5
2.575,67.401,5.1,-4,-3.2,-8.8,0.5
2.576,65.801,4.7,-4.3,-3.2,-9.1,0.5
2.577,65.201,4.1,-4.5,-3.6,-9.2,0.5
2.578,65.801,3.6,-4.8,-4.3,-9.2,0.5
2.579,67.401,3.2,-5.3,-5.3,-9.3,0.5
2.58,69.001,2.9,-5.9,-6.2,-9.4,0.5
2.581,69.301,2.8,-6.4,-6.6,-9.3,0.5
2.582,67.901,2.7,-6.6,-6.4,-8.9,0.5
2.583,65.401,2.6,-6.5,-5.8,-8.3,0.5
2.584,63.101,2.4,-6,-5,-7.7,0.5
2.585,62.501,2.1,-5.5,-4.4,-7.3,0.5
2.586,64.201,1.7,-4.8,-4,-7.1,0.5
2.587,67.801,1.6,-4,-3.8,-6.9,0.5
2.588,71.701,1.7,-3.1,-3.4,-6.7,0.5
2.589,74.501,2.2,-1.9,-2.7,-6.3,0.5
2.59,75.101,3.1,-0.8,-1.8,-5.8,0.5
2.591,73.701,4,0,-1.1,-5.5,0.5
2.592,71.201,4.7,0.2,-1,-5.4,0.5
2.593,69.101,4.8,-0.3,-1.6,-5.7,0.5
2.594,68.101,4.1,-1.2,-2.9,-6.1,0.5
2.595,68.101,3,-2.1,-4.4,-6.3,0.5
2.596,68.401,1.9,-2.5,-5.5,-6.2,0.5
2.597,68.101,1.3,-2.5,-5.9,-6,0.5
2.598,66.601,1.3,-2.2,-5.6,-5.8,0.5
2.599,64.601,1.9,-2.1,-5,-6,0.5
2.6,62.801,2.6,-2,-4.4,-6.5,0.5
2.601,62.201,3,-1.9,-4,-7.2,0.5
2.602,62.901,3,-1.3,-3.9,-7.7,0.5
2.603,64.301,2.7,-0.1,-4,-7.9,0.5
2.604,65.601,2.3,1.3,-3.9,-8,0.5
2.605,66.401,2,2.3,-3.8,-7.8,0.5
2.606,66.801,2,2.4,-3.8,-7.7,0.5
2.607,67.601,2.1,1.3,-4,-7.6,0.5
2.608,69.301,2.1,-0.7,-4.4,-7.5,0.5
2.609,71.801,2.1,-2.8,-4.9,-7.3,0.5
2.61,74.401,2.1,-4.4,-5.1,-7.3,0.5
2.611,76.001,2.2,-5.4,-4.8,-7.5,0.5
2.612,76.101,2.7,-5.8,-4.2,-8,0.5
2.613,74.801,3.3,-6.1,-3.5,-8.7,0.5
2.614,72.801,3.9,-6.3,-3,-9.3,0.5
2.615,71.101,4.2,-6.4,-3,-9.6,0.5
2.616,70.001,4,-6,-3.6,-9.7,0.5
2.617,69.801,3.5,-5,-4.5,-9.6,0.5
2.618,69.901,2.9,-3.5,-5.3,-9.6,0.5
2.619,70.301,2.5,-2.2,-5.8,-10,0.5
2.62,70.601,2.3,-1.5,-5.8,-10.6,0.5
2.621,70.801,2.3,-1.7,-5.5,-11.3,0.5
2.622,70.801,2.3,-2.5,-5,-11.8,0.5
2.623,70.301,2.2,-3.2,-4.6,-11.6,0.5
2.624,69.301,2.2,-3.3,-4.5,-11,0.5
2.625,68.001,2.4,-2.8,-4.7,-10,0.5
2.626,66.601,2.6,-2,-5,-9.1,0.5
2.627,65.501,2.9,-1.6,-5,-8.4,0.5
2.628,64.901,2.9,-1.9,-4.6,-8.1,0.5
2.629,64.901,2.7,-2.9,-3.8,-8,0.5
2.63,65.301,2.5,-4.1,-2.6,-7.8,0.5
2.631,66.401,2.3,-4.9,-1.6,-7.5,0.5
2.632,68.101,2.5,-5.1,-1.1,-7,0.5
2.633,70.001,2.9,-4.9,-1.4,-6.5,0.5
2.634,71.401,3.2,-4.6,-2.3,-6.1,0.5
2.635,71.601,3.3,-4.6,-3.4,-6.1,0.5
2.636,70.201,3,-4.7,-4,-6.2,0.5
2.637,67.701,2.7,-4.6,-4,-6.3,0.5
2.638,65.401,2.8,-4.1,-3.3,-6.3,0.5
2.639,64.501,3.5,-3,-2.5,-6.2,0.5
2.64,65.401,4.4,-1.8,-1.9,-6.2,0.5
2.641,67.501,5.3,-0.9,-2.1,-6.4,0.5
2.642,69.501,5.6,-0.5,-2.8,-6.7,0.5
2.643,70.101,5,-0.5,-4,-7.1,0.5
2.644,69.001,3.9,-0.5,-5.1,-7.5,0.5
2.645,66.901,2.8,-0.3,-5.8,-7.5,0.5
2.646,65.301,2.2,0.1,-6,-7.3,0.5
2.647,64.901,2.1,0.4,-5.9,-6.9,0.5
2.648,66.001,2.3,0.3,-5.5,-6.6,0.5
2.649,67.901,2.7,-0.4,-5.1,-6.4,0.5
2.65,69.401,2.8,-1.5,-4.8,-6.3,0.5
2.651,70.001,2.7,-2.5,-4.6,-6.2,0.5
2.652,69.601,2.6,-3,-4.4,-6,0.5
2.653,68.701,2.8,-2.9,-4.2,-5.7,0.5
2.654,67.801,3.3,-2.2,-4,-5.4,0.5
2.655,67.201,4,-1.3,-3.9,-5.1,0.5
2.656,67.101,4.7,-0.5,-3.9,-4.9,0.5
2.657,67.101,5.3,0,-3.9,-4.5,0.5
2.658,67.001,5.7,0.1,-3.8,-3.9,0.5
2.659,66.601,6.1,-0.1,-3.3,-3,0.5
2.66,65.801,6.6,-0.4,-2.4,-1.9,0.5
2.661,64.501,7.3,-0.7,-1.3,-1.1,0.5
2.662,62.801,8.1,-0.8,-0.2,-0.7,0.5
2.663,61.301,8.6,-0.8,0.5,-1.1,0.5
2.664,60.601,8.6,-1,0.6,-2.2,0.5
2.665,61.201,7.8,-1.7,0.1,-3.6,0.5
2.666,62.901,6.1,-3.1,-0.9,-5,0.5
2.667,64.901,3.9,-4.9,-2.1,-6.1,0.5
2.668,66.101,1.7,-6.9,-3.3,-6.7,0.5
2.669,65.801,-0.2,-8.4,-4.3,-6.8,0.5
2.67,64.001,-1.2,-9.1,-5.1,-6.7,0.5
2.671,61.601,-1.5,-9.2,-5.4,-6.8,0.5
2.672,59.701,-1.2,-8.9,-5.3,-7,0.5
2.673,59.301,-0.7,-8.9,-4.6,-7.6,0.5
2.674,60.401,-0.2,-9.2,-3.7,-8.4,0.5
2.675,62.301,0.2,-9.8,-2.6,-9.1,0.5
2.676,63.801,0.7,-10.6,-1.9,-9.6,0.5
2.677,64.201,1.3,-11.3,-1.7,-9.8,0.5
2.678,63.201,1.9,-11.7,-2.2,-9.7,0.5
2.679,61.601,2.3,-11.8,-3.1,-9.4,0.5
2.68,60.401,2.2,-11.8,-4.1,-9.1,0.5
2.681,60.101,1.8,-11.3,-4.7,-8.9,0.5
2.682,61.001,1.4,-10.5,-4.6,-8.7,0.5
2.683,62.601,1.1,-9.3,-4,-8.5,0.5
2.684,64.101,1.2,-8.1,-3.3,-8.3,0.5
2.685,64.801,1.5,-7,-2.8,-8.3,0.5
2.686,64.401,1.6,-6.5,-2.7,-8.6,0.5
2.687,63.201,1.2,-6.4,-3.1,-9,0.5
2.688,61.601,0.5,-6.5,-3.5,-9.6,0.5
2.689,60.201,-0.4,-6.3,-3.7,-10,0.5
2.69,59.501,-1,-5.8,-3.5,-10.3,0.5
2.691,60.101,-1.3,-5.2,-3.3,-10.4,0.5
2.692,61.701,-1.4,-4.8,-3.3,-10.4,0.5
2.693,64.001,-1.6,-5,-3.9,-10.4,0.5
2.694,66.101,-2.1,-5.8,-4.8,-10.5,0.5
2.695,67.201,-2.5,-6.7,-5.4,-10.4,0.5
2.696,66.701,-2.5,-7.2,-5.5,-10.2,0.5
2.697,64.801,-2,-6.8,-4.7,-9.8,0.5
2.698,62.301,-1,-5.8,-3.4,-9.2,0.5
2.699,60.401,0.2,-4.6,-2.3,-8.8,0.5
2.7,60.001,1,-4,-1.9,-8.7,0.5
2.701,61.001,1.2,-4.3,-2.3,-9.1,0.5
2.702,62.901,0.8,-5.4,-3.1,-9.7,0.5
2.703,64.301,0.2,-6.9,-3.7,-10.2,0.5
2.704,64.301,-0.2,-8.1,-3.6,-10.4,0.5
2.705,62.601,-0.2,-8.5,-2.9,-10.2,0.5
2.706,59.801,0.1,-8,-1.9,-9.6,0.5
2.707,56.901,0.7,-7,-1.2,-8.8,0.5
2.708,55.101,1.3,-6.1,-1.1,-8.2,0.5
2.709,54.801,1.8,-5.8,-1.6,-7.9,0.5
2.71,56.001,2.1,-6.4,-2.5,-7.9,0.5
2.711,57.601,2,-7.5,-3.2,-8.2,0.5
2.712,58.901,1.5,-8.8,-3.7,-8.5,0.5
2.713,59.001,0.8,-9.7,-3.8,-8.7,0.5
2.714,58.201,0.1,-9.9,-3.7,-8.6,0.5
2.715,57.101,-0.4,-9.5,-3.5,-8.1,0.5
2.716,56.601,-0.3,-8.6,-3.5,-7.3,0.5
2.717,57.001,0.1,-7.5,-3.5,-6.3,0.5
2.718,58.101,0.8,-6.5,-3.7,-5.4,0.5
2.719,59.001,1.3,-5.6,-3.8,-5,0.5
2.72,58.901,1.7,-4.8,-3.9,-5,0.5
2.721,57.801,1.8,-3.9,-4,-5.3,0.5
2.722,56.301,2,-2.9,-3.9,-5.8,0.5
2.723,55.201,2.3,-1.9,-3.9,-6.1,0.5
2.724,55.101,2.6,-1.2,-3.8,-6.2,0.5
2.725,55.401,2.4,-1.2,-4,-6.5,0.5
2.726,55.401,1.4,-1.9,-4.4,-7.1,0.5
2.727,54.501,-0.2,-3.2,-5,-7.9,0.5
2.728,52.801,-2,-4.7,-5.8,-8.8,0.5
2.729,51.501,-3.2,-5.7,-6.4,-9.3,0.5
2.73,51.701,-3.2,-5.8,-6.7,-9.1,0.5
2.731,53.501,-2,-4.9,-6.4,-8.2,0.5
2.732,56.301,-0.2,-3.3,-5.9,-7.1,0.5
2.733,58.401,1.2,-1.6,-5.5,-6.2,0.5
2.734,58.701,1.8,-0.3,-5.5,-6,0.5
2.735,57.001,1.5,0.3,-6.3,-6.4,0.5
2.736,54.001,0.8,0.2,-7.6,-7.1,0.5
2.737,51.501,0,-0.3,-9,-7.7,0.5
2.738,50.701,-0.3,-0.8,-10.1,-8,0.5
2.739,51.901,-0.4,-1.1,-10.3,-8,0.5
2.74,54.601,-0.5,-1.1,-9.8,-7.9,0.5
2.741,57.301,-0.8,-1,-8.8,-8.2,0.5
2.742,58.901,-1.4,-0.8,-7.8,-8.8,0.5
2.743,58.901,-1.9,-0.7,-7,-9.5,0.5
2.744,57.701,-2.2,-0.8,-6.7,-10.1,0.5
2.745,56.401,-2.2,-1.2,-6.7,-10.2,0.5
2.746,56.301,-2,-1.6,-6.9,-9.8,0.5
2.747,57.501,-1.9,-2,-7,-9.3,0.5
2.748,59.201,-1.8,-2.1,-7.1,-8.7,0.5
2.749,59.901,-1.8,-1.9,-7.2,-8.4,0.5
2.75,58.601,-1.6,-1.5,-7.2,-8.3,0.5
2.751,55.201,-1,-1.1,-7.3,-8,0.5
2.752,51.101,-0.2,-0.8,-7.3,-7.5,0.5
2.753,48.301,0.9,-0.6,-7.1,-6.7,0.5
2.754,48.401,2.1,-0.2,-6.7,-5.9,0.5
2.755,51.101,3.1,0.3,-6.2,-5.4,0.5
2.756,55.001,3.9,1.1,-6,-5.6,0.5
2.757,58.001,4,1.8,-6.2,-6.4,0.5
2.758,58.701,3.5,1.9,-7,-7.7,0.5
2.759,57.001,2.2,1.1,-8.3,-9.1,0.5
2.76,54.201,0.4,-0.7,-9.6,-10.2,0.5
2.761,52.001,-1.5,-2.9,-10.6,-11,0.5
2.762,51.401,-3,-5,-10.9,-11.3,0.5
2.763,52.601,-3.8,-6.2,-10.7,-11.4,0.5
2.764,54.701,-3.8,-6.4,-10.3,-11.4,0.5
2.765,56.601,-3.4,-5.9,-9.9,-11.3,0.5
2.766,57.401,-3,-5.1,-10,-11.2,0.5
2.767,57.001,-2.7,-4.6,-10.3,-10.9,0.5
2.768,55.801,-2.6,-4.6,-10.6,-10.6,0.5
2.769,54.601,-2.5,-4.8,-10.8,-10.2,0.5
2.77,54.001,-2.3,-4.9,-10.7,-9.7,0.5
2.771,54.501,-2,-4.6,-10.6,-9.1,0.5
2.772,55.601,-1.9,-4.1,-10.6,-8.6,0.5
2.773,56.501,-2,-3.4,-10.9,-8.1,0.5
2.774,56.301,-2.3,-3.1,-11.2,-7.9,0.5
2.775,54.701,-2.7,-3.1,-11.4,-8,0.5
2.776,52.101,-3.2,-3.4,-11,-8.3,0.5
2.777,49.701,-3.4,-3.7,-10.2,-8.6,0.5
2.778,48.501,-3.6,-3.9,-9.1,-8.8,0.5
2.779,49.001,-3.6,-3.9,-8.1,-8.8,0.5
2.78,50.601,-3.5,-3.9,-7.6,-8.6,0.5
2.781,52.001,-3.3,-3.9,-7.6,-8.4,0.5
2.782,52.301,-2.9,-4.1,-8,-8.5,0.5
2.783,51.501,-2.4,-4.3,-8.3,-8.8,0.5
2.784,50.501,-1.8,-4.4,-8.3,-9.2,0.5
2.785,50.401,-1.3,-4.4,-8.1,-9.6,0.5
2.786,52.101,-1,-4.3,-7.7,-9.7,0.5
2.787,55.001,-1,-4.4,-7.4,-9.4,0.5
2.788,57.801,-1.2,-4.7,-7.3,-8.9,0.5
2.789,59.101,-1.7,-5.1,-7.4,-8.4,0.5
2.79,58.001,-2.4,-5.7,-7.6,-7.8,0.5
2.791,55.001,-3.1,-6.2,-7.6,-7.3,0.5
2.792,51.601,-3.7,-6.6,-7.3,-6.6,0.5
2.793,49.301,-4,-7,-6.8,-5.7,0.5
2.794,49.101,-3.9,-7.3,-6.1,-4.7,0.5
2.795,50.801,-3.4,-7.5,-5.4,-3.8,0.5
2.796,53.101,-2.7,-7.5,-4.9,-3.4,0.5
2.797,55.001,-1.9,-7.3,-4.6,-3.4,0.5
2.798,55.601,-1.2,-6.6,-4.6,-3.8,0.5
2.799,55.101,-0.8,-5.7,-4.8,-4.2,0.5
2.8,54.201,-0.5,-4.7,-5.2,-4.3,0.5
2.801,53.601,-0.3,-3.9,-5.6,-4,0.5
2.802,53.501,-0.3,-3.3,-6,-3.4,0.5
2.803,53.901,-0.3,-2.8,-6.1,-3.1,0.5
2.804,54.001,-0.4,-2.2,-5.9,-3.2,0.5
2.805,53.301,-0.5,-1.5,-5.5,-3.7,0.5
2.806,51.501,-0.5,-0.7,-5,-4.7,0.5
2.807,48.901,-0.1,0,-4.6,-5.6,0.5
2.808,46.101,0.4,0.3,-4.5,-6.5,0.5
2.809,44.101,1,0,-4.8,-7,0.5
2.81,43.701,1.3,-1,-5.6,-7.4,0.5
2.811,44.901,1.1,-2.3,-6.7,-7.7,0.5
2.812,47.401,0.5,-3.7,-7.9,-8.2,0.5
2.813,50.201,-0.5,-4.9,-8.9,-8.9,0.5
2.814,52.201,-1.3,-5.8,-9.3,-9.7,0.5
2.815,52.601,-1.8,-6.3,-9.1,-10.4,0.5
2.816,51.501,-1.7,-6.5,-8.3,-10.8,0.5
2.817,49.501,-1.3,-6.6,-7.1,-10.7,0.5
2.818,47.501,-0.7,-6.3,-6,-10.2,0.5
2.819,46.501,-0.2,-5.7,-5.2,-9.6,0.5
2.82,46.501,0,-4.9,-5.1,-9.1,0.5
2.821,47.401,-0.1,-3.7,-5.5,-9,0.5
2.822,48.401,-0.5,-2.6,-6.2,-9.2,0.5
2.823,49.301,-1.1,-1.6,-6.8,-9.5,0.5
2.824,49.901,-1.8,-1,-7,-9.7,0.5
2.825,50.501,-2.5,-0.7,-6.8,-9.4,0.5
2.826,51.401,-3,-0.6,-6.3,-8.8,0.5
2.827,52.501,-3.2,-0.5,-5.9,-8.2,0.5
2.828,53.001,-3.2,-0.3,-5.7,-7.9,0.5
2.829,52.501,-3,-0.1,-5.8,-8,0.5
2.83,50.901,-2.8,-0.1,-6.2,-8.5,0.5
2.831,48.901,-2.7,-0.6,-6.6,-8.9,0.5
2.832,47.901,-2.7,-1.4,-6.9,-9.1,0.5
2.833,48.801,-2.6,-2.3,-7.1,-8.9,0.5
2.834,51.701,-2.6,-3,-7.1,-8.4,0.5
2.835,55.201,-2.5,-3.3,-6.9,-8.1,0.5
2.836,57.501,-2.4,-3.1,-6.6,-8.1,0.5
2.837,57.101,-2,-2.6,-5.9,-8.3,0.5
2.838,53.801,-1.3,-2.1,-5,-8.5,0.5
2.839,49.101,-0.1,-1.5,-3.9,-8.4,0.5
2.84,44.901,1.5,-0.6,-2.7,-7.8,0.5
2.841,42.801,3.5,0.8,-1.6,-6.8,0.5
2.842,43.301,5.4,2.8,-0.6,-5.5,0.5
2.843,45.601,7.1,5.4,0.4,-4,0.5
2.844,48.001,8.6,8,1.5,-2.5,0.5
2.845,49.201,9.8,10.2,2.9,-0.8,0.5
2.846,48.401,11.2,11.7,4.5,1.1,0.5
2.847,46.101,12.8,12.3,6.2,3.2,0.5
2.848,43.201,14.4,12.4,8,5.5,0.5
2.849,40.601,15.5,12.3,9.7,8,0.5
2.85,38.701,15.9,12.5,11.4,10.6,0.5
2.851,37.701,15.4,13.1,13.2,13.4,0.5
2.852,37.201,14,14,15.1,16.2,0.5
2.853,36.701,12,15,17.1,18.9,0.5
2.854,35.801,9.6,15.7,18.9,21.5,0.5
2.855,34.801,6.8,15.8,20,24,0.5
2.856,34.301,3.7,15.2,20.3,26.3,0.5
2.857,34.901,0,14.1,19.9,28.6,0.5
2.858,36.801,-4.1,12.6,19,30.8,0.5
2.859,39.401,-8.8,11,18.1,33.101,0.5
2.86,41.401,-13.8,9.4,17.4,35.101,0.5
2.861,41.501,-18.9,7.9,17.1,36.901,0.5
2.862,39.001,-24,6.5,16.7,38.401,0.5
2.863,34.901,-29.2,5,16,39.601,0.5
2.864,31,-34.301,3.6,14.7,40.501,0.5
2.865,29.2,-39.401,2.2,12.7,41.001,0.5
2.866,29.9,-44.201,0.8,10.4,40.801,0.5
2.867,32,-48.801,-0.8,8.1,39.901,0.5
2.868,33.401,-53.001,-2.7,5.9,38.201,0.5
2.869,32.4,-56.601,-5.1,3.8,36.001,0.5
2.87,29.4,-59.501,-7.9,1.8,33.601,0.5
2.871,26.2,-61.701,-10.5,-0.2,31.6,0.5
2.872,25.2,-63.001,-12.4,-2,30.1,0.5
2.873,27.1,-63.401,-13,-3.2,29.4,0.5
2.874,30.6,-62.901,-12.1,-3.6,29.5,0.5
2.875,32.801,-61.601,-10.1,-3.1,29.9,0.5
2.876,31.7,-59.801,-7.9,-2.3,30,0.5
2.877,27.4,-57.801,-6.6,-1.8,29.1,0.5
2.878,22.4,-55.801,-6.8,-2.4,26.3,0.5
2.879,19.5,-54.101,-8.8,-4.3,21.6,0.5
2.88,20.4,-52.401,-11.6,-7.5,15.3,0.5
2.881,24.4,-50.401,-14.1,-11.1,8.1,0.5
2.882,29,-47.601,-15.5,-14.6,0.8,0.5
2.883,31.9,-43.901,-15.5,-17.4,-6,0.5
2.884,32.4,-39.401,-14.5,-19.6,-12.2,0.5
2.885,31.4,-34.401,-13.5,-21.2,-17.7,0.5
2.886,30.4,-29.5,-13.4,-22.6,-22.7,0.5
2.887,30.1,-25.1,-14.3,-23.8,-26.6,0.5
2.888,30.1,-21.5,-15.6,-24.8,-29.2,0.5
2.889,29.5,-18.7,-16.6,-25.4,-30,0.5
2.89,28.4,-16.6,-16.8,-25.6,-29.5,0.5
2.891,27.7,-14.9,-16,-25.4,-28.3,0.5
2.892,28.8,-13.3,-14.9,-24.8,-27.4,0.5
2.893,32,-11.7,-13.9,-24.2,-27.6,0.5
2.894,36.201,-10.1,-13.6,-23.8,-28.9,0.5
2.895,39.101,-8.8,-13.9,-23.9,-31,0.5
2.896,39.001,-8,-14.5,-24.4,-33.101,0.5
2.897,35.901,-7.8,-14.6,-25.2,-34.501,0.5
2.898,31.9,-8,-14.1,-25.8,-35.001,0.5
2.899,29.5,-8.2,-12.9,-25.5,-34.701,0.5
2.9,30.4,-8.1,-11.3,-24.4,-33.901,0.5
2.901,34.001,-7.4,-9.9,-22.8,-33.001,0.5
2.902,37.801,-6.5,-9.4,-21.2,-32.3,0.5
2.903,39.201,-5.6,-9.9,-20.3,-31.8,0.5
2.904,37.101,-5.1,-11.5,-20.1,-31.2,0.5
2.905,32.3,-5.1,-13.5,-20.1,-30.2,0.5
2.906,27.3,-5.4,-15.1,-19.6,-28.7,0.5
2.907,24.7,-5.7,-15.9,-18.2,-26.6,0.5
2.908,25.7,-5.7,-15.5,-16,-24.3,0.5
2.909,29.5,-5.3,-14.1,-13.7,-22.2,0.5
2.91,33.901,-4.7,-12.3,-12.2,-20.7,0.5
2.911,36.701,-4,-10.7,-11.7,-20.1,0.5
2.912,36.601,-3.3,-9.7,-12.2,-20,0.5
2.913,33.801,-2.8,-9.3,-12.9,-20,0.5
2.914,29.8,-2.5,-9.2,-13.2,-19.6,0.5
2.915,26.4,-2.4,-9.1,-12.6,-18.3,0.5
2.916,24.8,-2.6,-8.6,-11.2,-16.2,0.5
2.917,24.9,-2.8,-7.5,-9.4,-13.6,0.5
2.918,26,-2.9,-6.2,-7.6,-11.4,0.5
2.919,27.2,-2.8,-4.9,-6.2,-10,0.5
2.92,27.6,-2.4,-4.2,-5.3,-9.8,0.5
2.921,27.2,-2.1,-4.4,-5,-10.7,0.5
2.922,26.4,-1.9,-5.4,-5,-11.9,0.5
2.923,25.9,-2.1,-6.7,-5.2,-12.7,0.5
2.924,26,-2.5,-7.6,-5.4,-12.5,0.5
2.925,26.5,-3.1,-7.4,-5.2,-11.4,0.5
2.926,27.2,-3.5,-6,-4.7,-9.8,0.5
2.927,27.4,-3.6,-3.8,-3.8,-8.5,0.5
2.928,27.1,-3.4,-1.4,-3.2,-7.9,0.5
2.929,26.3,-3.1,0.2,-3,-8.2,0.5
2.93,25.6,-2.7,0.7,-3.6,-9,0.5
2.931,25.5,-2.4,0.3,-4.6,-9.6,0.5
2.932,25.8,-2,-0.3,-5.6,-9.5,0.5
2.933,26.3,-1.5,-0.4,-6.1,-8.9,0.5
2.934,26.3,-1,0.3,-5.9,-8.1,0.5
2.935,25.4,-0.5,1.5,-5.1,-7.6,0.5
2.936,23.8,-0.2,2.6,-4.4,-7.9,0.5
2.937,22.4,-0.3,3,-4,-8.8,0.5
2.938,22,-0.7,2.5,-4,-9.9,0.5
2.939,23.2,-1.1,1.4,-4.2,-10.9,0.5
2.94,25.5,-1.5,0.3,-4.1,-11.3,0.5
2.941,28,-1.5,-0.4,-3.5,-11.2,0.5
2.942,29.4,-1.2,-0.6,-2.6,-10.6,0.5
2.943,29.3,-1,-0.6,-1.8,-10,0.5
2.944,27.9,-1,-0.6,-1.5,-9.3,0.5
2.945,26.1,-1.3,-1,-1.9,-8.6,0.5
2.946,25,-1.8,-1.4,-2.6,-7.9,0.5
2.947,25,-2,-1.4,-3.4,-7.4,0.5
2.948,25.9,-1.8,-0.9,-3.7,-7,0.5
2.949,26.7,-1.1,-0.1,-3.5,-7,0.5
2.95,26.6,-0.2,0.4,-2.8,-7.2,0.5
2.951,25,0.5,0.4,-2,-7.2,0.5
2.952,22.1,0.9,-0.5,-1.2,-6.8,0.5
2.953,18.7,0.8,-1.9,-0.8,-5.9,0.5
2.954,16.2,0.5,-3,-0.5,-4.8,0.5
2.955,15.4,0.1,-3.7,-0.4,-4,0.5
2.956,16.8,0,-3.8,-0.5,-3.9,0.5
2.957,19.9,0,-3.9,-0.8,-4.4,0.5
2.958,23.4,0,-4.4,-1.4,-5.5,0.5
2.959,25.9,-0.4,-5.6,-2.1,-6.6,0.5
2.96,26.4,-1.3,-7,-3,-7.5,0.5
2.961,25.1,-2.6,-8.2,-3.6,-8.1,0.5
2.962,22.8,-4,-8.5,-4,-8.6,0.5
2.963,20.7,-5.1,-8.1,-4,-9.1,0.5
2.964,19.5,-5.6,-7.5,-3.8,-9.7,0.5
2.965,19.2,-5.8,-7.3,-3.6,-10,0.5
2.966,19.5,-5.7,-7.8,-3.3,-9.6,0.5
2.967,20.1,-5.5,-8.7,-3,-8.4,0.5
2.968,21.4,-5.1,-9.1,-2.6,-6.3,0.5
2.969,24,-4.6,-8.5,-2,-3.9,0.5
2.97,28.3,-3.6,-6.4,-1.1,-1.6,0.5
2.971,34.201,-2.2,-3.3,0.3,0.5,0.5
2.972,41.001,-0.3,0.3,2.3,2.7,0.5
2.973,47.801,2,4.1,5,5.8,0.5
2.974,54.301,4.5,7.8,8.7,10.2,0.5
2.975,61.001,7.4,11.5,12.9,16.2,0.5
2.976,68.401,10.5,15.4,17.1,22.9,0.5
2.977,76.601,13.7,19,20.6,29.1,0.5
2.978,84.801,16.6,21.8,22.7,33.201,0.5
2.979,91.601,18.7,23,22.9,34.501,0.5
2.98,95.601,19.6,22.4,21.4,32.801,0.5
2.981,95.901,19.2,20.2,18.7,29,0.5
2.982,92.801,17.7,17.1,15.6,24.3,0.5
2.983,86.501,15.5,13.7,12.7,19.6,0.5
2.984,77.701,13,10.5,10.5,15.3,0.5
2.985,67.001,10.5,7.5,8.6,11,0.5
2.986,55.301,8,4.5,6.8,6.2,0.5
2.987,43.201,5.4,1.2,4.7,0.7,0.5
2.988,31.4,2.7,-2.3,2.1,-5.1,0.5
2.989,20,0,-5.6,-0.9,-10.5,0.5
2.99,8.8,-2.3,-8.4,-3.6,-14.3,0.5
2.991,-3,-3.8,-10,-5.5,-16.2,0.5
2.992,-15.4,-4.4,-10.2,-6.2,-16.2,0.5
2.993,-27.2,-4.1,-9,-5.7,-14.9,0.5
2.994,-36.501,-3.3,-6.8,-4.4,-13.3,0.5
2.995,-41.201,-2.4,-4.1,-2.8,-11.8,0.5
2.996,-40.301,-1.5,-1.6,-1.4,-10.5,0.5
2.997,-34.801,-0.7,0.2,-0.4,-9.2,0.5
2.998,-27,0.1,1,0.3,-7.9,0.5
2.999,-19.5,0.8,0.8,0.7,-6.5,0.5
3,-14.1,1.3,0.1,0.7,-5.5,0.5
3.001,-10.8,1.4,-1,0.3,-4.9,0.5
3.002,-8.5,0.9,-1.8,-0.3,-4.8,0.5
3.003,-5.7,-0.3,-2.2,-1,-4.8,0.5
3.004,-1.8,-1.6,-1.9,-1.4,-4.5,0.5
3.005,3.3,-2.7,-0.8,-1.4,-3.8,0.5
3.006,8.6,-3.1,0.8,-1,-3,0.5
3.007,12.9,-2.9,2.4,-0.7,-2.5,0.5
3.008,15.6,-2.4,3.6,-0.7,-2.7,0.5
3.009,16.2,-2,4.1,-1.2,-3.6,0.5
3.01,15.1,-2,3.8,-2,-4.8,0.5
3.011,12.8,-2.6,3.1,-2.9,-5.7,0.5
3.012,10.4,-3.4,2.2,-3.4,-6,0.5
3.013,8.6,-4.3,1.3,-3.4,-5.8,0.5
3.014,8,-5.1,0.6,-3,-5.5,0.5
3.015,8.2,-5.9,-0.2,-2.6,-5.4,0.5
3.016,8.7,-6.6,-0.9,-2.2,-5.5,0.5
3.017,8.7,-7,-1.4,-2,-5.6,0.5
3.018,8,-7.2,-1.3,-1.7,-5.3,0.5
3.019,7.2,-7,-0.6,-1.3,-4.4,0.5
3.02,7,-6.6,0.4,-0.7,-3.3,0.5
3.021,7.8,-6.4,1.1,0.1,-2.4,0.5
3.022,9.4,-6.5,1,0.8,-1.9,0.5
3.023,11.1,-7,-0.1,1.2,-2,0.5
3.024,11.7,-7.7,-1.5,1.2,-2.5,0.5
3.025,10.6,-8.4,-2.6,0.6,-2.9,0.5
3.026,8.2,-9,-3.1,-0.3,-3,0.5
3.027,5.4,-9.3,-3.1,-1.3,-2.6,0.5
3.028,3.1,-9.7,-3,-1.8,-1.9,0.5
3.029,2.3,-10.2,-3.2,-1.8,-1,0.5
3.03,2.8,-10.6,-3.8,-1.2,-0.2,0.5
3.031,4.3,-11,-4.2,-0.4,0.4,0.5
3.032,5.9,-11.1,-4.1,0.3,0.7,0.5
3.033,6.5,-11.1,-3.4,0.6,0.7,0.5
3.034,5.7,-11.1,-2.6,0.5,0.3,0.5
3.035,3.5,-11.4,-2.4,0.2,-0.4,0.5
3.036,0.6,-11.8,-3,0.1,-1.1,0.5
3.037,-1.8,-12.1,-4.3,0.5,-1.4,0.5
3.038,-2.8,-11.9,-5.3,1.5,-1,0.5
3.039,-2.2,-11.1,-5.5,2.7,0,0.5
3.04,-0.5,-10.2,-4.6,3.9,1.3,0.5
3.041,1.1,-9.4,-3.2,4.6,2.2,0.5
3.042,1.8,-9.3,-2,5,2.5,0.5
3.043,1.2,-9.7,-1.7,5,2.2,0.5
3.044,-0.2,-10.2,-2.3,5.1,1.7,0.5
3.045,-1.8,-10.6,-3,5.5,1.6,0.5
3.046,-2.9,-10.4,-3.1,6.2,2.1,0.5
3.047,-3.7,-9.9,-2.4,7,3.2,0.5
3.048,-4.3,-9.4,-1.2,7.6,4.3,0.5
3.049,-5,-9.3,-0.3,7.9,4.9,0.5
3.05,-5.9,-9.8,-0.4,7.6,4.9,0.5
3.051,-6.6,-10.6,-1.5,7.1,4.7,0.5
3.052,-6.8,-11.2,-3,6.7,4.7,0.5
3.053,-6.6,-11.3,-4.3,6.5,5.1,0.5
3.054,-6.4,-10.8,-4.9,6.8,5.9,0.5
3.055,-6.5,-9.9,-5.1,7.3,6.8,0.5
3.056,-7.2,-9,-5.1,7.7,7.3,0.5
3.057,-8.3,-8.8,-5.7,7.5,7.1,0.5
3.058,-9.1,-9.3,-6.8,6.6,6.4,0.5
3.059,-9.2,-10.4,-7.8,5.4,5.7,0.5
3.06,-8.6,-11.6,-8.2,4.4,5.3,0.5
3.061,-7.7,-12.5,-7.4,3.9,5.6,0.5
3.062,-7.1,-12.8,-5.6,4.3,6.3,0.5
3.063,-7.2,-12.5,-3.4,5.2,7.3,0.5
3.064,-7.7,-12,-2,6.1,8,0.5
3.065,-8,-11.7,-1.8,6.5,8.4,0.5
3.066,-7.8,-11.8,-2.8,6.1,8.3,0.5
3.067,-7.3,-12.2,-4.4,5.3,8.1,0.5
3.068,-7.2,-12.9,-5.6,4.5,7.9,0.5
3.069,-7.9,-13.5,-5.9,4.2,8,0.5
3.07,-9.3,-13.9,-5.3,4.7,8.5,0.5
3.071,-10.6,-13.9,-4.3,5.7,9.3,0.5
3.072,-10.8,-13.8,-3.7,6.6,10,0.5
3.073,-9.6,-13.6,-3.8,7.1,10.6,0.5
3.074,-7.6,-13.4,-4.5,7.1,10.9,0.5
3.075,-6,-13.1,-5.3,6.7,11,0.5
3.076,-5.7,-12.7,-5.7,6.4,11.1,0.5
3.077,-6.6,-12.3,-5.4,6.6,11.4,0.5
3.078,-8,-12,-4.8,7.2,11.8,0.5
3.079,-9,-12,-4.3,8.1,12.3,0.5
3.08,-9.4,-12.4,-4.3,8.8,12.5,0.5
3.081,-9.7,-13.2,-4.9,8.9,12.5,0.5
3.082,-10.3,-14.3,-5.7,8.3,12,0.5
3.083,-11.5,-15.3,-6.2,7.2,11.4,0.5
3.084,-12.5,-16,-6.1,6,10.7,0.5
3.085,-12.7,-16.5,-5.5,5.4,10.2,0.5
3.086,-11.8,-16.7,-4.9,5.4,10.1,0.5
3.087,-10.7,-17,-4.6,6.1,10.4,0.5
3.088,-10.4,-17.4,-4.8,6.9,10.8,0.5
3.089,-11.7,-17.9,-5.3,7.4,11.4,0.5
3.09,-14.3,-18.4,-5.7,7.4,11.9,0.5
3.091,-17,-18.6,-5.8,7,12.2,0.5
3.092,-18.5,-18.4,-5.5,6.5,12.2,0.5
3.093,-18.3,-17.9,-5.2,6.3,12,0.5
3.094,-16.7,-17.3,-5.3,6.6,11.7,0.5
3.095,-14.4,-17.1,-5.8,7.2,11.3,0.5
3.096,-12.3,-17.3,-6.6,7.6,10.8,0.5
3.097,-10.8,-18.1,-7.6,7.7,10.4,0.5
3.098,-10.1,-19,-8.3,7.4,10.1,0.5
3.099,-10.2,-19.7,-8.4,7.1,10,0.5
3.1,-11.2,-19.8,-7.9,7.2,10.3,0.5
3.101,-12.8,-19.3,-7,7.9,11,0.5
3.102,-14.8,-18.4,-5.9,9.3,12.1,0.5
3.103,-16.3,-17.2,-4.9,10.8,13.3,0.5
3.104,-16.9,-16.2,-4.1,12,14.5,0.5
3.105,-16.4,-15.4,-3.5,12.6,15.5,0.5
3.106,-15.3,-14.8,-3,12.3,16,0.5
3.107,-14.2,-14.5,-2.5,11.6,16,0.5
3.108,-13.7,-14.4,-2,10.6,15.7,0.5
3.109,-13.7,-14.5,-1.7,9.7,15.1,0.5
3.11,-14,-14.8,-1.6,9.2,14.4,0.5
3.111,-14.3,-15.3,-1.8,9,13.7,0.5
3.112,-14.6,-15.8,-2.2,9.1,13,0.5
3.113,-14.9,-16.2,-2.6,9.1,12.2,0.5
3.114,-15.1,-16.6,-2.9,8.9,11.3,0.5
3.115,-15.3,-16.9,-3.1,8.5,10.5,0.5
3.116,-15.3,-17.2,-3.2,7.9,9.6,0.5
3.117,-15.4,-17.6,-3.5,7.2,8.9,0.5
3.118,-15.8,-18,-3.9,6.7,8.4,0.5
3.119,-16.7,-18.1,-4.4,6.5,8.1,0.5
3.12,-17.8,-17.9,-4.9,6.6,8,0.5
3.121,-18.7,-17.2,-5.2,6.8,7.9,0.5
3.122,-18.8,-16.2,-5.5,7.1,7.6,0.5
3.123,-18,-15.3,-5.8,7.4,7.2,0.5
3.124,-16.5,-14.7,-6.3,7.7,6.7,0.5
3.125,-15.2,-14.6,-6.8,8,6.1,0.5
3.126,-14.7,-14.9,-7.2,8.3,5.4,0.5
3.127,-15.2,-15.5,-7.1,8.4,4.6,0.5
3.128,-16.2,-16,-6.7,8.3,3.7,0.5
3.129,-17.5,-16.1,-5.9,7.8,2.9,0.5
3.13,-18.5,-15.9,-5,7.2,2.4,0.5
3.131,-19.2,-15.4,-4.1,6.7,2.3,0.5
3.132,-19.6,-14.8,-3.4,6.5,2.7,0.5
3.133,-19.8,-14.1,-2.6,6.6,3.1,0.5
3.134,-19.7,-13.2,-1.7,6.8,3.2,0.5
3.135,-19.6,-12.3,-1.2,6.9,2.6,0.5
3.136,-19.5,-11.2,-1.1,6.6,1.5,0.5
3.137,-19.7,-9.9,-1.6,6.3,0.3,0.5
3.138,-20.2,-8.6,-2.6,6.2,-0.5,0.5
3.139,-20.5,-7,-3.5,6.8,-0.6,0.5
3.14,-20.3,-5.2,-3.8,7.9,-0.1,0.5
3.141,-19.3,-3.4,-3.3,9.3,0.6,0.5
3.142,-18.1,-1.8,-2.2,10.4,1,0.5
3.143,-17.7,-1,-1.1,10.7,0.9,0.5
3.144,-18.9,-0.9,-0.2,10.2,0.4,0.5
3.145,-21.8,-1.5,0.4,9.3,-0.2,0.5
3.146,-25.4,-2.2,0.9,8.5,-0.6,0.5
3.147,-28.2,-2.4,1.5,8.3,-0.6,0.5
3.148,-28.9,-2,1.9,8.6,-0.6,0.5
3.149,-27.6,-1.1,1.7,9.2,-0.6,0.5
3.15,-25.5,-0.5,0.5,9.4,-1,0.5
3.151,-24.1,-0.4,-1.3,9.2,-1.5,0.5
3.152,-24.2,-1,-3.2,8.5,-2.2,0.5
3.153,-25.8,-1.8,-4.3,7.8,-2.7,0.5
3.154,-27.5,-2.3,-4.1,7.2,-2.9,0.5
3.155,-28.6,-2.1,-2.9,6.9,-3,0.5
3.156,-28.6,-1.5,-1.3,6.7,-2.9,0.5
3.157,-28.3,-0.9,-0.3,6.2,-2.7,0.5
3.158,-28.4,-0.7,-0.1,5.5,-2.4,0.5
3.159,-29,-0.8,-0.7,4.7,-2,0.5
3.16,-29.5,-1,-1.3,4.3,-1.4,0.5
3.161,-28.9,-0.5,-1.5,4.6,-0.7,0.5
3.162,-27,0.7,-1.1,5.4,-0.1,0.5
3.163,-24.4,2.4,-0.6,6.3,0.3,0.5
3.164,-22.8,4.1,-0.5,6.7,0.3,0.5
3.165,-23.5,5.1,-0.9,6.3,-0.1,0.5
3.166,-26.5,5.1,-1.6,5.2,-0.8,0.5
3.167,-30.7,4.4,-2.3,3.8,-1.4,0.5
3.168,-34.201,3.5,-2.6,2.7,-1.8,0.5
3.169,-35.701,3,-2.2,2.1,-1.7,0.5
3.17,-35.201,3.1,-1.2,2,-1.3,0.5
3.171,-33.901,3.7,-0.1,2.3,-0.9,0.5
3.172,-33.001,4.6,0.9,2.8,-0.7,0.5
3.173,-33.501,5.6,1.7,3.2,-0.8,0.5
3.174,-35.201,6.3,2.2,3.6,-1.3,0.5
3.175,-37.101,6.8,2.6,4,-1.8,0.5
3.176,-38.201,7,3,4.3,-2.2,0.5
3.177,-38.001,6.9,3.4,4.5,-2.4,0.5
3.178,-36.901,6.6,4,4.6,-2.7,0.5
3.179,-35.501,6.1,4.6,4.8,-3.1,0.5
3.18,-34.501,5.6,4.9,5.1,-3.8,0.5
3.181,-34.401,4.9,4.7,5.5,-5,0.5
3.182,-35.301,4.4,4,5.9,-6.2,0.5
3.183,-37.101,3.9,3,6.1,-7.2,0.5
3.184,-39.401,3.7,2.3,6,-7.7,0.5
3.185,-41.901,3.7,2.1,5.5,-7.6,0.5
3.186,-44.101,4,2.8,4.7,-7.2,0.5
3.187,-45.801,4.4,4,4,-6.8,0.5
3.188,-46.701,4.6,5.1,3.4,-6.8,0.5
3.189,-46.801,4.6,5.7,3,-7.2,0.5
3.19,-46.301,4.2,5.3,2.8,-7.9,0.5
3.191,-45.301,3.8,4.1,2.7,-8.4,0.5
3.192,-44.001,3.5,2.5,2.6,-8.6,0.5
3.193,-42.601,3.5,1.2,2.3,-8.2,0.5
3.194,-41.401,3.8,0.6,2,-7.4,0.5
3.195,-40.601,4.3,0.6,1.7,-6.5,0.5
3.196,-40.301,4.7,1,1.6,-5.8,0.5
3.197,-40.301,4.8,1.5,1.8,-5.3,0.5
3.198,-40.401,4.6,1.9,2.2,-5.1,0.5
3.199,-40.201,4.1,2.1,2.8,-4.9,0.5
3.2,-39.901,3.8,2.3,3.2,-4.9,0.5
3.201,-39.801,3.7,2.5,3.2,-4.9,0.5
3.202,-40.401,3.9,2.7,2.8,-5,0.5
3.203,-41.701,4.4,2.8,2.3,-5.4,0.5
3.204,-43.501,4.9,2.6,2,-5.9,0.5
3.205,-44.901,5.1,2.3,2.1,-6.2,0.5
3.206,-45.301,4.8,1.9,2.7,-6.4,0.5
3.207,-44.801,4,1.8,3.3,-6.3,0.5
3.208,-43.801,3.1,2.2,3.7,-6.2,0.5
3.209,-43.201,2.3,3,3.5,-6,0.5
3.21,-43.301,2,4.1,2.8,-5.9,0.5
3.211,-44.101,2.1,5.1,1.9,-5.8,0.5
3.212,-44.501,2.5,5.7,1.2,-5.4,0.5
3.213,-43.901,3,6,1.1,-4.9,0.5
3.214,-42.201,3.3,6,1.5,-4.5,0.5
3.215,-40.101,3.4,5.9,2.2,-4.5,0.5
3.216,-38.801,3.4,5.7,2.7,-5,0.5
3.217,-39.201,3.4,5.4,2.5,-6.1,0.5
3.218,-41.301,3.3,4.9,1.7,-7.2,0.5
3.219,-44.101,3.1,4.3,0.6,-7.9,0.5
3.22,-46.401,3,3.8,-0.2,-7.7,0.5
3.221,-47.101,3.1,3.8,-0.2,-6.6,0.5
3.222,-46.201,3.7,4.5,0.7,-4.7,0.5
3.223,-44.501,4.8,5.8,2.1,-2.6,0.5
3.224,-43.301,6.4,7.3,3.4,-0.9,0.5
3.225,-43.501,7.9,8.4,4.2,0.2,0.5
3.226,-45.001,9,8.9,4.3,0.5,0.5
3.227,-47.001,9.5,8.7,3.8,0.2,0.5
3.228,-48.401,9.3,8,3.2,-0.4,0.5
3.229,-48.501,8.8,7.1,2.9,-0.9,0.5
3.23,-47.601,8.1,6.2,2.7,-1.3,0.5
3.231,-46.101,7.6,5.3,2.6,-1.7,0.5
3.232,-44.801,7.1,4.4,2.4,-2.2,0.5
3.233,-44.201,6.6,3.3,1.9,-3.2,0.5
3.234,-44.101,6,2.1,1.3,-4.5,0.5
3.235,-44.301,5.4,0.9,0.8,-5.9,0.5
3.236,-44.901,4.8,-0.3,0.7,-7.1,0.5
3.237,-45.701,4.3,-1.4,0.8,-7.6,0.5
3.238,-46.701,3.8,-2.2,1.1,-7.4,0.5
3.239,-47.401,3.5,-2.6,1.3,-6.8,0.5
3.24,-47.401,3.2,-2.5,1.4,-6.3,0.5
3.241,-46.101,3.1,-1.9,1.4,-6,0.5
3.242,-43.801,3.1,-1.1,1.3,-6.1,0.5
3.243,-41.401,3.2,-0.3,1.1,-6.6,0.5
3.244,-40.401,3.4,0,0.8,-7.2,0.5
3.245,-41.501,3.3,-0.4,0.1,-7.9,0.5
3.246,-44.401,3,-1.4,-0.8,-8.5,0.5
3.247,-47.901,2.4,-2.7,-1.8,-8.9,0.5
3.248,-50.201,1.8,-3.9,-2.6,-9.1,0.5
3.249,-50.301,1.3,-4.6,-3,-9.1,0.5
3.25,-48.501,1.1,-4.8,-3.1,-9,0.5
3.251,-46.101,0.9,-4.7,-3,-8.8,0.5
3.252,-44.401,0.8,-4.7,-3,-8.7,0.5
3.253,-44.301,0.7,-5,-2.9,-8.6,0.5
3.254,-45.401,0.6,-5.5,-2.8,-8.3,0.5
3.255,-46.701,0.7,-6,-2.5,-7.7,0.5
3.256,-47.301,1.2,-6.1,-1.9,-6.8,0.5
3.257,-47.001,2.1,-5.8,-1.3,-5.7,0.5
3.258,-46.501,3.1,-5.1,-1,-4.8,0.5
3.259,-46.701,3.9,-4.4,-1.2,-4.5,0.5
3.26,-47.901,4.3,-3.9,-1.6,-4.7,0.5
3.261,-49.901,4.2,-3.6,-2,-5.2,0.5
3.262,-51.801,4,-3.6,-2.1,-5.7,0.5
3.263,-52.501,3.7,-3.6,-1.6,-5.8,0.5
3.264,-51.601,3.7,-3.5,-0.9,-5.7,0.5
3.265,-49.201,3.9,-3.3,-0.3,-5.4,0.5
3.266,-46.401,4.2,-3.3,-0.2,-5.3,0.5
3.267,-44.501,4.2,-3.4,-0.5,-5.5,0.5
3.268,-44.201,4,-3.7,-1.1,-5.8,0.5
3.269,-45.901,3.5,-4.1,-1.5,-6.1,0.5
3.27,-48.801,3,-4.3,-1.5,-6.2,0.5
3.271,-51.901,2.7,-4.4,-1,-6.4,0.5
3.272,-54.301,2.5,-4.5,-0.5,-6.5,0.5
3.273,-55.601,2.5,-4.7,-0.4,-6.7,0.5
3.274,-55.901,2.5,-5.1,-0.8,-6.9,0.5
3.275,-55.501,2.3,-5.8,-1.5,-6.8,0.5
3.276,-54.601,2,-6.4,-2.2,-6.4,0.5
3.277,-53.201,1.6,-6.8,-2.5,-5.6,0.5
3.278,-51.101,1.6,-6.7,-2.4,-4.8,0.5
3.279,-48.401,1.8,-6.1,-2.1,-4.3,0.5
3.28,-45.801,2.4,-5.3,-1.9,-4.1,0.5
3.281,-44.301,3,-4.4,-2,-4.1,0.5
3.282,-44.501,3.5,-3.7,-2.4,-4.1,0.5
3.283,-46.501,3.8,-3.2,-2.7,-3.8,0.5
3.284,-49.201,4.1,-2.6,-2.6,-3.2,0.5
3.285,-51.001,4.5,-2,-2,-2.4,0.5
3.286,-50.901,5,-1.4,-1.1,-1.6,0.5
3.287,-48.701,5.7,-0.9,-0.2,-1.2,0.5
3.288,-45.601,6.3,-0.5,0.2,-1.3,0.5
3.289,-43.001,6.7,-0.3,0.1,-1.7,0.5
3.29,-42.201,6.7,-0.1,-0.2,-2.3,0.5
3.291,-43.401,6.5,0.4,-0.5,-2.8,0.5
3.292,-45.701,6.2,1.2,-0.8,-3.3,0.5
3.293,-47.701,5.8,2,-1.1,-3.7,0.5
3.294,-48.301,5.4,2.8,-1.4,-4.2,0.5
3.295,-47.301,5,3.1,-1.9,-4.7,0.5
3.296,-45.401,4.7,2.9,-2.3,-5.2,0.5
3.297,-44.101,4.4,2.5,-2.5,-5.5,0.5
3.298,-44.001,4.2,2,-2.3,-5.4,0.5
3.299,-45.301,4.2,1.8,-1.7,-4.8,0.5
3.3,-46.901,4.5,1.7,-1.1,-3.9,0.5
3.301,-47.801,4.8,1.9,-0.6,-2.9,0.5
3.302,-47.301,5.2,2,-0.3,-2.1,0.5
3.303,-45.701,5.6,2,-0.2,-1.5,0.5
3.304,-44.301,5.8,1.8,0,-1.3,0.5
3.305,-44.001,6,1.6,0.2,-1.5,0.5
3.306,-44.901,6,1.4,0.4,-2,0.5
3.307,-46.301,5.9,1.3,0.3,-2.6,0.5
3.308,-47.001,5.9,1.3,0.2,-3.1,0.5
3.309,-46.301,6,1.5,0.2,-3.4,0.5
3.31,-44.601,6.4,1.6,0.5,-3.5,0.5
3.311,-43.201,7,1.4,1.1,-3.6,0.5
3.312,-43.401,7.5,0.8,1.6,-3.8,0.5
3.313,-45.301,7.8,-0.2,1.8,-4.2,0.5
3.314,-48.301,7.6,-1.6,1.2,-4.7,0.5
3.315,-50.801,7.1,-2.7,0.2,-5,0.5
3.316,-51.401,6.6,-3.1,-0.8,-4.9,0.5
3.317,-49.901,6.4,-2.3,-1.1,-4.5,0.5
3.318,-47.301,6.7,-0.4,-0.5,-3.9,0.5
3.319,-45.001,7.5,2.2,0.8,-3.5,0.5
3.32,-44.301,8.3,4.5,1.9,-3.7,0.5
3.321,-45.501,8.9,6,2.3,-4.5,0.5
3.322,-48.001,8.9,6.4,1.7,-5.7,0.5
3.323,-50.801,8.4,5.9,0.6,-6.7,0.5
3.324,-52.801,7.8,4.9,-0.4,-7.3,0.5
3.325,-53.801,7.4,4.1,-0.7,-7.3,0.5
3.326,-54.101,7.1,3.6,-0.5,-7.2,0.5
3.327,-54.701,7,3.5,-0.2,-7,0.5
3.328,-56.201,6.6,3.4,-0.1,-6.9,0.5
3.329,-58.701,6,3.2,-0.6,-6.9,0.5
3.33,-61.401,5.4,2.8,-1.2,-6.7,0.5
3.331,-63.201,5.1,2.5,-1.6,-6.3,0.5
3.332,-62.901,5.3,2.4,-1.2,-5.6,0.5
3.333,-60.301,6.3,2.6,-0.1,-4.9,0.5
3.334,-56.601,7.6,3,1.3,-4.2,0.5
3.335,-53.401,9.1,3.4,2.4,-3.7,0.5
3.336,-52.501,10.4,3.6,3.2,-3.4,0.5
3.337,-54.401,11.5,3.5,3.5,-3.1,0.5
3.338,-58.301,12.3,3.1,3.6,-2.8,0.5
3.339,-62.101,12.7,2.3,3.6,-2.7,0.5
3.34,-64.201,12.6,1.3,3.4,-3,0.5
3.341,-63.801,11.7,0,2.7,-3.9,0.5
3.342,-61.501,10,-1.6,1.5,-5.2,0.5
3.343,-58.901,7.8,-3.4,-0.1,-6.7,0.5
3.344,-57.701,5.7,-5,-1.6,-7.9,0.5
3.345,-58.701,4.5,-6.1,-2.4,-8.4,0.5
3.346,-61.401,4.2,-6.5,-2.6,-8.4,0.5
3.347,-64.501,4.6,-6.2,-2.4,-8.1,0.5
3.348,-66.701,5.1,-5.5,-2.2,-8.1,0.5
3.349,-67.301,5.2,-4.8,-2.3,-8.6,0.5
3.35,-66.401,4.7,-4.3,-3,-9.6,0.5
3.351,-64.901,3.8,-3.9,-4,-10.7,0.5
3.352,-63.501,3.1,-3.7,-4.9,-11.3,0.5
3.353,-62.501,2.9,-3.3,-5.4,-11.3,0.5
3.354,-61.901,3.1,-2.7,-5.4,-10.7,0.5
3.355,-61.501,3.6,-1.9,-5.2,-9.7,0.5
3.356,-61.101,3.9,-1.2,-4.7,-8.7,0.5
3.357,-61.201,3.9,-0.8,-4.1,-8.1,0.5
3.358,-62.001,3.7,-0.7,-3.5,-7.8,0.5
3.359,-63.701,3.3,-0.9,-3,-7.8,0.5
3.36,-65.701,2.8,-1.2,-2.6,-7.9,0.5
3.361,-67.301,2.4,-1.2,-2.3,-7.9,0.5
3.362,-67.701,2,-0.9,-2.2,-7.7,0.5
3.363,-67.001,1.8,-0.3,-2.3,-7.5,0.5
3.364,-65.501,1.9,0.6,-2.4,-7.2,0.5
3.365,-63.901,2.4,1.3,-2.5,-6.9,0.5
3.366,-62.601,3.1,1.7,-2.4,-6.7,0.5
3.367,-61.601,3.6,1.5,-2.2,-6.9,0.5
3.368,-60.801,3.9,0.8,-1.8,-7.5,0.5
3.369,-59.901,3.9,-0.1,-1.5,-8.5,0.5
3.37,-59.101,3.6,-1,-1.5,-9.5,0.5
3.371,-59.001,3.5,-1.6,-1.7,-10.1,0.5
3.372,-59.601,3.5,-1.8,-2.3,-10,0.5
3.373,-60.901,3.7,-1.6,-3,-9.2,0.5
3.374,-62.401,3.9,-1.3,-3.4,-8,0.5
3.375,-63.701,4,-0.7,-3.2,-6.7,0.5
3.376,-64.401,4.1,-0.3,-2.4,-5.9,0.5
3.377,-64.301,4.3,0.1,-1.1,-5.8,0.5
3.378,-63.701,4.6,0.2,0,-6.4,0.5
3.379,-62.501,5,0.1,0.5,-7.5,0.5
3.38,-61.101,5.2,-0.2,0.2,-8.7,0.5
