-0.0407561444549418,0.00751948731375016,0.0506927012399421,0.0845724906687505,0.107042210605104,0.117566409674905,0.115611721009655,0.0998959539724797,0.0696478002844563,0.0265630034568555,-0.0248860566131981,-0.0787858901955652,-0.129635956594337,-0.173460767036608,-0.208132605875508,-0.233170305911823,-0.249295325759957,-0.257964164824868,-0.260846950259459,-0.259563583725473,-0.255574722339891,-0.25008167609039,-0.244012972420355,-0.237951540665295,-0.232089139455513,-0.226329922991592,-0.220577115517362,-0.214810699659535,-0.209192523942452,-0.203849602008107,-0.19877656705451,-0.193841452029558,-0.188958835203634,-0.184175329805075,-0.179690967945776,-0.175608852638311,-0.171836494131458,-0.168043282680841,-0.163876164613361,-0.159330779352385,-0.154748916182274,-0.150509462410586,-0.146662866974052,-0.142943816997773,-0.138949533118051,-0.134522657155907,-0.129828189217119,-0.125107743885948,-0.120449050804797,-0.115715322551099,-0.110792349008255,-0.105601410976024,-0.100261819809844,-0.0948946440104681,-0.0894476293460211,-0.0839072981756009,-0.0783196429803632,-0.0727463503248239,-0.0673393505309364,-0.0621060412507922,-0.0569761786194484,-0.0519224263820944,-0.0468932867344297,-0.0419016485935972,-0.0369820743463644,-0.0322038956528588,-0.0277388286005189,-0.0236393782781204,-0.0198293335010955,-0.0161344272757809,-0.0124287499998685,-0.00876742655945921,-0.00539966628261473,-0.00258256230016242,-0.000354924087116681,0.00143578010423279,0.00311706130890259,0.00490573107247055,0.00690699347057351,0.00903991731727251,0.0112411501423367,0.0135057041241853,0.0157772014669555,0.0180072540504511,0.0200823451524012,0.0217702668622343,0.0229741089466888,0.0237121304613143,0.0241316108539525,0.0245206692835408,0.0251387338334279,0.0260351709947728,0.0270588752159572,0.0279377601371967,0.0284606120011549,0.0287022429389767,0.0288267265831106,0.0290341750293902,0.029286187396621,0.0293254839614645,0.0291102379222866,0.0287231712189062,0.0283561232607959,0.0281152350413417,0.0278360200446804,0.0272682439037298,0.0262283682245937,0.0246948510894497,0.0228215208525557,0.0208797927849589,0.0189923108382929,0.0171650568487923,0.0152428876129142,0.0131066144154814,0.0107402846579908,0.00815904489932433,0.00541985815119077,0.00256683720031937,-0.00044519035026469,-0.00367072381779039,-0.00717081158533108,-0.0110306569763274,-0.0153197673424981,-0.0200757213872192,-0.0253153134435537,-0.0308690193792917,-0.0365209863618196,-0.0420689579144794,-0.0474804260998985,-0.0529924933527715,-0.0588602552133405,-0.0651074058736061,-0.0714815497700221,-0.0776175369305656,-0.0833196196352033,-0.0887368948302173,-0.0942056313243606,-0.0998910755892083,-0.105713374104544,-0.111291644023927,-0.1162576320278,-0.120587878818152,-0.124474770424059,-0.128136649127799,-0.131561578573595,-0.134534788305094,-0.136908676842009,-0.13886534567031,-0.140702023982946,-0.142518462529188,-0.144122812326056,-0.14528199395211,-0.146018974198466,-0.146724911897844,-0.147808783919698,-0.149204161976291,-0.150443041086215,-0.150937584676384,-0.150652848954518,-0.150087200602459,-0.149811398805661,-0.150044882868806,-0.150531441619817,-0.15077916226312,-0.150499366625729,-0.149735749593429,-0.148731210977536,-0.14770672099897,-0.14680726618948,-0.146100296963567,-0.14564627602923,-0.145521091157232,-0.145563704077228,-0.145440316318929,-0.144926443585114,-0.144012781694129,-0.142977634505615,-0.142263525891723,-0.14207114906108,-0.142285165190556,-0.14251083163677,-0.142370619980646,-0.141798245461248,-0.140941239999813,-0.139947800694928,-0.138883075867243,-0.137725741079294,-0.136582170350204,-0.135704656630783,-0.135169057484422,-0.134862637085867,-0.134446761436837,-0.133725085785536,-0.132820258153021,-0.132158069567211,-0.132010755471043,-0.132200544976746,-0.132171738654851,-0.1314421327618,-0.130046526827039,-0.128527746638353,-0.127517507290903,-0.12706055839114,-0.126677585195498,-0.125859398527078,-0.124597799605564,-0.12342228026961,-0.12285192225892,-0.122803864466742,-0.122745478755902,-0.122042710342867,-0.120601254892357,-0.118911241765299,-0.117513640361788,-0.116450478591524,-0.115383927230161,-0.113834376650366,-0.111787319045811,-0.10976180863943,-0.108243452698307,-0.107363809565869,-0.106867279455342,-0.106264473402667,-0.105413911293187,-0.104364637740532,-0.1033629717504,-0.102641255098158,-0.102156934225678,-0.101714080901839,-0.101222341834749,-0.10055871567117,-0.0997405993893663,-0.0988403842717616,-0.0978872585972501,-0.0969810239975428,-0.0962722796167834,-0.0958189791760191,-0.0955674709675781,-0.0953869424165859,-0.0951356078438475,-0.0948069227080141,-0.0944999318158618,-0.0942513590690447,-0.0939249465947032,-0.0933769642229627,-0.0925848518715573,-0.0917252999995616,-0.0909650035267427,-0.0903708152097197,-0.0898129198502834,-0.0890217215849765,-0.0879042719157864,-0.0866787383472772,-0.0857423492492794,-0.0854203675738015,-0.0856756942381335,-0.0861848479681142,-0.0865212779321045,-0.0864619503441967,-0.0860680653897629,-0.0856512773058915,-0.0854371204737044,-0.0854266071944102,-0.0854438344836906,-0.0853093234386114,-0.0849611082862544,-0.084489700976396,-0.0840967275356125,-0.0839302848479436,-0.0840778133516451,-0.0844834256685172,-0.0850536263592177,-0.0855621675044682,-0.085843556291833,-0.0857618341968906,-0.085337850275666,-0.0846601756109042,-0.0838624171327461,-0.0830706831224494,-0.0822788655446908,-0.0813777210651443,-0.0804790415326123,-0.0796145937313322,-0.0789059643621214,-0.0784452237553361,-0.0781379331843694,-0.0778497195239962,-0.0774074811281928,-0.0767797301844269,-0.0761077164207759,-0.075578963833728,-0.0753568027146264,-0.0754019918058294,-0.0755163131008495,-0.0754798335819283,-0.0752317395484666,-0.074885231870677,-0.0746442066129917,-0.0746023145122874,-0.074653478434953,-0.0745526770425936,-0.0741172438730827,-0.0733876937921315,-0.0725053103878653,-0.0715953427188474,-0.070650356906762,-0.0695703104307581,-0.0683428757012075,-0.0669391420471705,-0.065385124436886,-0.06373709611368,-0.0620371387409419,-0.0603795541046172,-0.0587665949401866,-0.0571726438378646,-0.0555527653117916,-0.0539243726419532,-0.0524464438949261,-0.0512730605886741,-0.0504294735739545,-0.049776282679958,-0.0489941958720965,-0.047821990073368,-0.0463448874782335,-0.0447843681206771,-0.0434148416908373,-0.0423498805825097,-0.0414072635496061,-0.0403401059587705,-0.0390445065791207,-0.0375700356674788,-0.0361730706697849,-0.0350934138810747,-0.0342802634117357,-0.0336795155686362,-0.0331970084836543,-0.0328740546758228,-0.0329335703970064,-0.0334961741738493,-0.0345142719777957,-0.0358136964318174,-0.0371172962683677,-0.0382450401444094,-0.0392012938589154,-0.0400715942356504,-0.0409486549492598,-0.0418678195915912,-0.0428527911147461,-0.0438653424721799,-0.044923617928748,-0.046020866899127,-0.0471666317439133,-0.0483123717089622,-0.0492468996103125,-0.0498141626117642,-0.0500001151356069,-0.0499811471158145,-0.0500394554827802,-0.0503166511038834,-0.0507147294706021,-0.0511118476274977,-0.051586811861795,-0.0522152192562961,-0.0530872345985186,-0.054024514986071,-0.0546756158300424,-0.0549636518477132,-0.055089179697315,-0.0553587982122193,-0.0559022875322738,-0.0565458079322687,-0.0570611180977095,-0.0574158582552267,-0.0578432184299284,-0.0584408859432804,-0.0590126368805418,-0.0592379485304174,-0.0589217763707693,-0.0582547247379887,-0.0576541677175587,-0.0572718087026765,-0.05674901119007,-0.0552840995025415,-0.0520649930884123,-0.0469154075262685,-0.0403783349268319,-0.0335767802823695,-0.02781672765292,-0.0241206232270741,-0.022878430241541,-0.0238603950411857,-0.0262791864320977,-0.0295420635800042,-0.0336477266487121,-0.0392697565009528,-0.0470102268070915,-0.0564473145899146,-0.0654049247541564,-0.0704628459378485,-0.068307923391263,-0.0570589581400131,-0.0365508833392461,-0.0075457186939408,0.0290115066364108,0.0719509143709732,0.119092547920101,0.166642151505912,0.209583418590769,0.243371300370284,0.26562274077627,0.275853265534197,0.273910292243871,0.258928019751375,0.230251747854471,0.189180923254183,0.139693049616082,0.0873383676904326,0.0378040715576742,-0.00453595979823126,-0.0371568866516891,-0.0593795115773443,-0.071878984255964,-0.0761262449953369,-0.0738764913925156,-0.0671132172115074,-0.0576195167330888,-0.0468020563575394,-0.0355059619497966,-0.0241022549765067,-0.0127421260126468,-0.00168190770636337,0.00880660346429168,0.0184935359437208,0.0272725218622609,0.0352850066692778,0.0426657237073869,0.0493490586861083,0.0550502729601118,0.0594102617066924,0.062275100635085,0.0637875676155513,0.0642192682084916,0.0638989671179341,0.0629440764107181,0.0614515003347221,0.0594339533406121,0.0569065428691697,0.0539291197289337,0.0505682151882514,0.0469869006858735,0.0435074106600925,0.0403695909360761,0.0378927764030801,0.0362083742910012,0.035153422595476,0.0345121092744727,0.0341036962304,0.0340517681159826,0.0346283897981589,0.0360512712084075,0.0382949821237193,0.0410037355670298,0.0435284871875589,0.0452951879502923,0.0458007358375785,0.0447315375287171,0.0420255762117489,0.0376925043466004,0.0320805532374174,0.0258129426308996,0.0195713735964705,0.0139087625323563,0.00891869593920691,0.00430749436274262,-5.77744131855678e-05,-0.00422266061198934,-0.00787729134075809,-0.0108273468268724,-0.0131246964860687,-0.0148537731549417,-0.0161054884289806,-0.0168858461357875,-0.0170848386142405,-0.0166997132681811,-0.0158196139344673,-0.014615892719815,-0.0131794833688065,-0.0114725714798623,-0.00941384962311763,-0.00691937300752113,-0.00397256440537369,-0.000609685072728947,0.00312497756538222,0.00715978256792485,0.0113564228669836,0.0154641042424955,0.0192839499195403,0.0227857897455385,0.0261336431698976,0.0293912886013537,0.0323719758688984,0.0347730459102242,0.0365096600113822,0.0378518976074126,0.0393016674097756,0.04118605445273,0.0433021579390158,0.0452695394344406,0.0467675878466734,0.0479093500766954,0.04903119377123,0.0503957752111595,0.0518961127204328,0.0533130619141354,0.0545476637405119,0.0557899856011122,0.0571259879794003,0.0584312587471303,0.0594749995819941,0.0601334087177423,0.0605879127225065,0.061149439066373,0.0619171892352543,0.0626316428840084,0.0627552046912083,0.061960357255661,0.0603485002281244,0.0582339961382337,0.0558194058150147,0.0528932631045329,0.0488868504986534,0.0434780721764125,0.0366485263098972,0.0285624319427469,0.0192316488634359,0.00838162095698231,-0.00429839593929185,-0.0188844095122358,-0.0352140851854608,-0.0531775710385426,-0.0730497662084132,-0.0956111233250484,-0.121817795689862,-0.152530336292084,-0.18817598087553,-0.228663668246441,-0.272768622207475,-0.317280498880549,-0.356589079000201,-0.383314494875823,-0.390101798510728,-0.37169165629522,-0.325694011402346,-0.251790992205061,-0.150337128864517,-0.0219720109433645,0.130474476728383,0.299629388200926,0.473149149096512,0.636693807510572,0.779208534571422,0.896385487716173,0.989917847397634,1.06393678939268,1.12252799407583,1.16996257392988,1.21243184267032,1.2568097671721,1.30476348614608,1.3453935966939,1.35288422011286,1.2946151556708,1.14706037367257,0.910819769233906,0.6143438838301,0.303526321058827,0.0236429296332078,-0.195403753477752,-0.343974289044114,-0.42826013270864,-0.462090902574179,-0.46030057517712,-0.435303801449411,-0.396506433203431,-0.350913721780053,-0.303749983177665,-0.258988919693087,-0.219553260265311,-0.187091242995927,-0.162066348578868,-0.143807753789727,-0.130944557930025,-0.121898924746603,-0.115203485846565,-0.109722783584063,-0.104812164468914,-0.100081611066404,-0.0954401175462841,-0.0910309746217036,-0.0870373018380158,-0.0837064761552546,-0.0809902189899216,-0.0786789790207537,-0.0766231473367691,-0.0747616733463246,-0.0732600307102994,-0.0722778229474021,-0.0716984907444604,-0.0712666265330016,-0.0707033676340804,-0.0699730920080553,-0.0692479254540489,-0.0687680419588688,-0.0685878818953042,-0.0686071964096036,-0.068725003950011,-0.0689209805371291,-0.069228998939019,-0.0696753100840271,-0.070132539783496,-0.0704524751599577,-0.0705633322753746,-0.0705246131446053,-0.0704648708844876,-0.0703020182808718,-0.0698677539797835,-0.0689770471901128,-0.0677105300619453,-0.0665533070309478,-0.0660121254208823,-0.0662641755634743,-0.0668900381206022,-0.0671870213411145,-0.0667408752123804,-0.0656781332079002,-0.0645354815706329,-0.0638236006109648,-0.0634867467479873,-0.0631324686985532,-0.062376225699147,-0.0612500854793224,-0.0600500458895992,-0.0590791678237091,-0.0582857769106805,-0.0575326496916474,-0.0567261380082218,-0.0560592910362408,-0.0557192103550906,-0.0556551794963838,-0.055538639418739,-0.0550342595946668,-0.0541558674273134,-0.0532296447717807,-0.0526573637076352,-0.0525018452801639,-0.0523965189561378,-0.052119063487831,-0.0516819785168101,-0.0513833300897297,-0.0514022501767978,-0.0515716640051209,-0.0515533059291642,-0.0510453425263528,-0.0500338506602574,-0.048850381516232,-0.0477586292315224,-0.0468041774246843,-0.0458833161095572,-0.0449527988465899,-0.04412916294731,-0.0435910909203069,-0.0432697111041042,-0.0429754795896793,-0.0425528567648103,-0.0419099823812038,-0.041136516734083,-0.0402682008513592,-0.0393455028467444,-0.038453368189699,-0.0376556616368409,-0.0369987828950143,-0.0364992509036609,-0.0360290680613339,-0.0355527321795761,-0.035065803935904,-0.0346480145674266,-0.0342825246679706,-0.0338826119508028,-0.0334009461119203,-0.0328348720439363,-0.0323522046514311,-0.0319967443175086,-0.0317495220273996,-0.031472529311032,-0.031108195929177,-0.0308271162843623,-0.0307161711688421,-0.0307417801653327,-0.0308208793036068,-0.0307694587423534,-0.0306219489632135,-0.0305020627916778,-0.0304367080535377,-0.0303958960714695,-0.0301720988543242,-0.0296652766842142,-0.0289090187252576,-0.0279910680764883,-0.0270610048881225,-0.0262073258518517,-0.0255086597408069,-0.0249598384985451,-0.0243978879670634,-0.0235935729273097,-0.0223561860981986,-0.0206166112386184,-0.0185067575006075,-0.0162413421385723,-0.0139137777984072,-0.0114770940531841,-0.00883170952790197,-0.00593330619686591,-0.0028829374681992,0.000162987639102233,0.00315512541676545,0.0061335588973431,0.00921633108729093,0.0124637261817209,0.0158679289932032,0.0193895329304945,0.0230126411094778,0.0267877986496747,0.0307393034377862,0.0348004791089224,0.0389232302431936,0.0430568216181028,0.04720660810657,0.0513564877304398,0.0554851830057536,0.0594566422959124,0.0631831998377243,0.0666159238228763,0.0698567160192969,0.0729441276060457,0.0759027495045224,0.0786531640943235,0.0811905057290905,0.0835148763493348,0.0856912282020658,0.0877030487870422,0.0895442604778265,0.0913299542978415,0.0930894046646373,0.0946306084956359,0.095665359191666,0.0959229847883384,0.0954999858175841,0.0948544305383135,0.0944588759663084,0.0945975705007388,0.0950296555716915,0.0952058565673999,0.0947943752786415,0.0937074815107598,0.0922457121852003,0.0907183013479126,0.0892111835726449,0.0876052309379203,0.0857452673559747,0.0835951943929509,0.0812438837479553,0.0787914631289486,0.0763271967998136,0.0738368865846489,0.0713180695272391,0.0688500947789038,0.066458513814773,0.0641371169100018,0.0617936210092091,0.0593967761324848,0.0569993043943111,0.0547798383666006,0.0528467783904549,0.0510615771469318,0.049165475434082,0.047008350887164,0.044834933379196,0.043118263046682,0.0425666359940327,0.0436736832142365,0.04658396639536,0.0509570766745018,0.0558861304611863,0.0600016116722148,0.0620639815048548,0.0615339289259231,0.0587952550954599,0.0548253339093958,0.0502953177245233,0.0450836767693403,0.0382367269923061,0.0291518371658126,0.0185596552224557,0.00908803878148173,0.00428446049688923,0.00705199944522996,0.0185989660909709,0.0388030571514842,0.0670967275545458,0.10309185276939,0.145927594943076,0.193206085677417,0.240537266690927,0.282563401238792,0.314853424910401,0.335330493474124,0.343678759545852,0.339521930359938,0.32063502219716,0.286279050248434,0.238745470846208,0.183516291819376,0.127226676149221,0.0755896065089846,0.032463689507209,-0.000262790166673132,-0.0223633853341348,-0.0349689879929679,-0.0402573124477954,-0.0407349971346002,-0.0386817649600688,-0.035531519656002,-0.0317897204642227,-0.0275526997124316,-0.0229724033724141,-0.0184408298241421,-0.0144306524143636,-0.0111632027535629,-0.00857590289463568,-0.00650903420931963,-0.00486254823039884,-0.00360484353276261,-0.00266980804422891,-0.00185458745653163,-0.000963814482697528,-2.95998591301402e-05,0.00084286281047264,0.00150907332196717,0.00196595364330224,0.00226353800402537,0.00236732721268235,0.00214264265450051,0.00159872184118757,0.000932119458091074,0.000536999034034716,0.000712590622442055,0.00142735792766258,0.00225296577805436,0.00284539578546088,0.00314324205871121,0.00337544461054844,0.00380606134079325,0.00441866115690154,0.00487023088455356,0.00500107687096777,0.00487050602758405,0.0048543232809791,0.0052068633553506,0.00586314582332486,0.00652832552298142,0.00701585856213895,0.00735063641654318,0.00782557049530524,0.00857387643766614,0.0094424260111227,0.0102370393950752,0.0107967974759933,0.0112480903635456,0.0118388435379802,0.0127608255635781,0.0140260593284773,0.0154428563260207,0.0168304327678036,0.018165848833096,0.0195950959945652,0.0211893158219596,0.0229495212156311,0.0247189441465701,0.0263297127391679,0.0278874534919732,0.0295530562551434,0.0314936468554519,0.0336162412303162,0.0356554936684114,0.0375590758420574,0.0394588615310777,0.0416549271450739,0.044452335042213,0.0476743732774142,0.0510163324941149,0.0541595610207804,0.0568715730543716,0.0591416348335097,0.0611079774039163,0.0629593439449153,0.0648693652118913,0.0669190530023279,0.06895707798057,0.0708622147897142,0.0725125318234358,0.0738043802435749,0.0747298897212769,0.0752883403336857,0.0754662084062137,0.0754308445706052,0.0752480807295761,0.0749641459711773,0.0745605211368937,0.0740363800109073,0.0733838296412205,0.0726719143106853,0.0718758029768957,0.0709791740398146,0.0698797815432113,0.0684653849127128,0.0666714075138064,0.064417524983227,0.0615572277458202,0.0580554996761488,0.0539800121003031,0.0495237598177521,0.0448674531757763,0.0401672384733722,0.0354897041555388,0.030870682406909,0.0263711641855903,0.0220003690774681,0.0177259285351922,0.0134903840155439,0.00924083978076613,0.00499766900081815,0.000933909129991591,-0.00281609322576013,-0.00623528013620354,-0.00946728443589167,-0.0126022815366673,-0.0155771514267878,-0.0181609998085445,-0.0201296232157128,-0.0214845440220801,-0.022459309097064,-0.023272747124525,-0.0241007186103255,-0.0249268355423117,-0.0256006308408921,-0.0259525740347621,-0.0259485875039672,-0.0256552725865671,-0.0253037768577995,-0.0250924275579551,-0.0250491844146371,-0.025032843373352,-0.0249106383112516,-0.0246478041964025,-0.0244147246024112,-0.0243573094582814,-0.0244987835655485,-0.0246560905609048,-0.0245867859660964,-0.0243163860343614,-0.0241083090665438,-0.0242140167192255,-0.0246453837237234,-0.0250105901840347,-0.0249102586632633,-0.0243871120561642,-0.023820491213172,-0.0237550487588017,-0.0242706331689313,-0.0249154845801229,-0.0251266238468599,-0.0247509218592985,-0.0241115844750795,-0.0237717716339855,-0.0239093780823649,-0.0241783757890055,-0.0240403985794577,-0.0232406389281981,-0.0219455118882002,-0.0206271182239744,-0.0195568810172575,-0.0186774906942542,-0.0178424219124298,-0.0169859379457432,-0.0162716836638462,-0.0159558527208051,-0.0159560626499324,-0.015991507619116,-0.0157888472956541,-0.0154814935577731,-0.0154660968803715,-0.0160665002657722,-0.0171271785666575,-0.0180642821455725,-0.0182648638511775,-0.0175678175787373,-0.0163418049264357,-0.0150830323173752,-0.0140625635996475,-0.0131188311304824,-0.0120438393055682,-0.0107379277786702,-0.00939956588481636,-0.00833788729859231,-0.00772351774751944,-0.00746873965088891,-0.0073154918616022,-0.00716925863262881,-0.0070641517831479,-0.00708305185122702,-0.00712973419775356,-0.00704263451316357,-0.00665193488870518,-0.00598936399114094,-0.00515809024333767,-0.00431491687774142,-0.003495504034707,-0.00270341046480109,-0.00191544902595912,-0.00127479629661888,-0.000934803025927451,-0.000886744943743502,-0.00101032349573449,-0.0010451394019322,-0.000805016204180791,-0.000427008943178625,-0.000140034199507645,-0.000194967550343766,-0.000563085495701164,-0.000944194870979412,-0.00109986462093962,-0.000971383260598098,-0.000762206818869191,-0.000809133818908759,-0.00128396201531075,-0.00218949246346229,-0.00325372288699443,-0.00426177455865574,-0.00504252052366761,-0.00558342794064058,-0.00587854631459073,-0.00606552794618104,-0.00627824550915213,-0.00665229811083652,-0.00714658140381655,-0.00776097233302046,-0.00844617134786363,-0.00924070444796486,-0.0101971787984344,-0.0113591997365858,-0.0125798085287504,-0.0137543157188263,-0.0147128955516383,-0.0154668954798497,-0.016050093259577,-0.0164951106858276,-0.016825470272922,-0.017037343637054,-0.0172883044166355,-0.0178289212001515,-0.018880801982833,-0.0203625131547474,-0.0220025441705615,-0.0233992770928135,-0.0244221515628692,-0.0252308980223169,-0.0261045130318137,-0.0272294386246877,-0.0286139382290913,-0.0300800369701548,-0.0315445890888946,-0.0328807411046444,-0.0340965557562649,-0.0353231768503178,-0.0366096744732294,-0.037994146915031,-0.0394479592564289,-0.0408258872220468,-0.0419420460781344,-0.0426378183242869,-0.0428625460663477,-0.0427747897047555,-0.0426638684987485,-0.0426389997958254,-0.0427133592404698,-0.0427693308333,-0.0426327268547507,-0.0423297332670293,-0.041745912092997,-0.0407702797192735,-0.0392503854041187,-0.037074119514116,-0.0343744893793507,-0.0313043469086285,-0.0278592792282311,-0.0239159092854827,-0.0192444155968239,-0.0136477692145298,-0.00726739668056692,-0.000474471689324112,0.00626209849608744,0.0127004432152161,0.0189093489571868,0.0251324685536281,0.0315922180285234,0.0382719943775903,0.0449421214473712,0.0513154307787778,0.0572651947047644,0.0628437723697649,0.0681822144334083,0.0733570014942066,0.0782074701357078,0.0824497525615979,0.0857350267504615,0.087774918264773,0.0885647178730848,0.0882479556085873,0.0870196109258936,0.0850840930629411,0.0824834617680271,0.0793208465529446,0.0757144366199181,0.0716023792117359,0.0669380659864099,0.0615932751463476,0.0556193301987312,0.0494708658772796,0.0437734113906767,0.0390921661899939,0.0357311150830661,0.033493981122937,0.0319943673740052,0.0310123908634385,0.0306392123708855,0.0311846884396665,0.0327133785451379,0.0347209274384426,0.0362648781400274,0.0364403335349709,0.0347978743885262,0.0315635603506573,0.0271644776071934,0.0218843324416048,0.0157095307329985,0.00860205435186862,0.000870809824435076,-0.00682704836811791,-0.0139144037511021,-0.0203773631531304,-0.0265411877818594,-0.0327189452703029,-0.0387269136817368,-0.0439531720202485,-0.0479084916924771,-0.0506441431863313,-0.0525863615800114,-0.054116290060648,-0.0549787410641735,-0.0545621452961453,-0.0522421471432114,-0.0477499634440089,-0.0413236083111915,-0.0336992119355649,-0.0260443973519858,-0.0198847512780325,-0.0162976653925654,-0.0155338438025125,-0.0168576583275121,-0.0193377935845323,-0.022818731166886,-0.0280910807463479,-0.0358832920427762,-0.0454285513945874,-0.0536092438926116,-0.0560726714746573,-0.0492998102972472,-0.0319443283360752,-0.00444987074837382,0.0321635145638442,0.0767777682795807,0.127213849493262,0.179275923266709,0.226942845566845,0.264327084915241,0.288072338392505,0.297491700630097,0.29234036496296,0.271827727526129,0.235447583222869,0.185535116237067,0.127588493241634,0.0683340145240143,0.0137649003937801,-0.0318818952939381,-0.0664700228123552,-0.0897199723968155,-0.102941892243177,-0.108465208450583,-0.108966804005443,-0.106781896173661,-0.103515927348954,-0.0999332472905191,-0.0963659170553509,-0.0930810791377919,-0.0904401986414348,-0.088763487689692,-0.0881070153547636,-0.0883656205701743,-0.0896058672494775,-0.0921068349339775,-0.096394773182185,-0.102887758785087,-0.111588137059567,-0.122221607858209,-0.134532156905886,-0.148726893188333,-0.165549157043664,-0.185968196834419,-0.211044911337555,-0.241557535084077,-0.277565679710668,-0.317863097469234,-0.358911557467299,-0.394781066070733,-0.418045920560152,-0.42164647169247,-0.400767293836125,-0.353282542125473,-0.278789809756344,-0.177355816343074,-0.0493764266581512,0.102528393135232,0.270925855595114,0.443315192866961,0.605353288258304,0.74616630717727,0.861809958566044,0.954428835619873,1.0285355477927,1.08818756616542,1.13742457477743,1.18194114976627,1.22815438474032,1.27772134273401,1.32010085211676,1.33015524599868,1.27448147999953,1.12924086576008,0.895624928670626,0.60349393365786,0.30001417820666,0.0307207808985889,-0.175509929695746,-0.310734469940334,-0.382720556975593,-0.406332061693577,-0.396680130446384,-0.365884445646613,-0.322865179072297,-0.274203842667222,-0.225026267880695,-0.179351594899412,-0.139911726666827,-0.108056686743316,-0.0836787114666879,-0.0655675000752267,-0.051995608953054,-0.0412527478731049,-0.0319898954523494,-0.0234878067642918,-0.0153046390697061,-0.00729455916418845,0.000465105356415321,0.0077798028398427,0.01429278559581,0.0197521985179206,0.0242463841089077,0.027959683462863,0.0311950986904355,0.0339902394271991,0.0360828170853805,0.0373609236292124,0.0380098915886463,0.0385422806308822,0.0395478354494941,0.0411234609803171,0.0427791386059967,0.0439719375407288,0.0444279069376227,0.0444503208304183,0.0445721290777797,0.0449306982326966,0.0451395811001745,0.0446178042241413,0.043133900447992,0.040988721773372,0.0386976994019146,0.0364454967020822,0.0340191871717346,0.0310163837172089,0.0273444919674515,0.0234085083035245,0.019659769803806,0.0163161376424874,0.0131536318085687,0.00978973050709443,0.00601670431286418,0.00207211678784273,-0.00174311056145017,-0.005273850168519,-0.00867644745076529,-0.0122428090837192,-0.0160257378865987,-0.0198297649118233,-0.0233895714316534,-0.0266101190940225,-0.0296357199763401,-0.0326726282323646,-0.0357086774101255,-0.0384738426979229,-0.0407715966377881,-0.0426451179995936,-0.0443660579906705,-0.0461837652009424,-0.0480572355687773,-0.0497400750478958,-0.0509219629463781,-0.0514388463944251,-0.0514017671414532,-0.051055716793622,-0.0507517107898865,-0.0506640532963095,-0.0508262489395489,-0.0511549044687595,-0.0514384683424592,-0.0515898058876447,-0.0516735238657183,-0.0518579581673498,-0.0522454535919307,-0.052746993094688,-0.0530764003063926,-0.0530392424466273,-0.052647366153359,-0.0521968503228852,-0.0518878289378862,-0.0517195478218345,-0.0514583749997406,-0.0508395119879313,-0.0498498150974432,-0.04879229576524,-0.0481123983331718,-0.0479919026139255,-0.0482835256415977,-0.0485843132768315,-0.0485288896002714,-0.048141432279056,-0.0476459320632431,-0.0472639206770735,-0.0469697858002273,-0.0465425023093317,-0.046021660488065,-0.0455606406760792,-0.045306525743417,-0.0452854676418076,-0.0453355909811292,-0.0453166232664573,-0.0452970220161692,-0.0454038958401428,-0.0456461019476181,-0.0458497289376214,-0.0456285161819947,-0.0448083497592431,-0.0436895690342409,-0.0428118409828208,-0.0425813947365107,-0.0430521810002401,-0.0438009412283035,-0.044370847450941,-0.0446377898220274,-0.0447509320531536,-0.0448867724303973,-0.0450980313516058,-0.0451559253279752,-0.0448163823188088,-0.0440817310999922,-0.0430732342442151,-0.0420019274320453,-0.0409105915047366,-0.039611940187308,-0.0379623880476031,-0.0359921877098284,-0.0338867227877546,-0.0320169260720707,-0.0305325187319075,-0.0293097663572448,-0.0281278042674961,-0.0267441837183771,-0.0251365339600887,-0.0235173875936738,-0.0218946673945191,-0.0200445081928023,-0.0175927336642799,-0.0143527553080527,-0.0105112558571369,-0.00658424994205377,-0.00294587647470763,0.000336946331339537,0.0035424407871974,0.00714160553161213,0.011251658776667,0.0156865367932986,0.0200909036223696,0.0242121626392172,0.0280460262976084,0.0317202794462257,0.035281973567563,0.0388149179241543,0.0423123947695681,0.0459121190393706,0.0498441414272221,0.0540644790184633,0.0582788081579531,0.0621187712618762,0.0653395291784743,0.0680242449542325,0.0705450543054663,0.0730493430029614,0.0754511401273632,0.0774902949212553,0.0789053374022189,0.0796983892823432,0.0800964051885411,0.0803714909187716,0.0807454136799559,0.081195624983845,0.0815895306147333,0.0818941098224471,0.0820490621193065,0.0820021010437107,0.0816973728614431,0.0809348538754694,0.0797101251907575,0.0782148711274548,0.0767217966677227,0.0754236887863427,0.0742425486079116,0.0728614957017343,0.0710969116201707,0.0689170192215099,0.0664489520339901,0.0639843904039955,0.061578471072641,0.0591774198565728,0.056679059500053,0.0541595795413933,0.0518357847743896,0.0498291893148968,0.0481327152986123,0.046398475713094,0.0443618234452277,0.042010165890434,0.0394801102053475,0.0370093042160301,0.0346539240080148,0.0322014431635229,0.0295613447654045,0.0267522080325311,0.0239658966691614,0.0215706034013424,0.0196110437587527,0.0178793349062495,0.0161535277650103,0.0142327240350125,0.0122353445339381,0.0104165976699616,0.00876666130650913,0.00725336020645897,0.00571489189375177,0.00407469737378459,0.00245366277003921,0.000884840780772508,-0.000704625916339388,-0.00240846683680443,-0.00424228443053156,-0.00589762982742219,-0.00695220887498124,-0.00735424137510633,-0.00737083111839114,-0.00751318354087377,-0.00813916130932623,-0.00913477579760163,-0.0100750369897081,-0.0106497516414357,-0.0108230276378234,-0.0109610658353384,-0.0113064735342624,-0.0118539193975607,-0.0124543300131936,-0.0129553256722911,-0.0135032355275553,-0.0144005240325001,-0.0157046343759064,-0.0172943704389311,-0.0188554369810439,-0.0202133819145617,-0.0215815203349655,-0.0234003116015146,-0.0257663455177349,-0.0284492388915469,-0.0308973093324103,-0.0328105231670376,-0.0344101502020363,-0.0361678749321529,-0.0383695957041207,-0.0408640446717121,-0.0432446152411387,-0.0452607014154249,-0.046989370078038,-0.0485555991811818,-0.0500500605932557,-0.0514030201352498,-0.0525299064907974,-0.0535615837988591,-0.0547277340376427,-0.0561659379178536,-0.0578998380278124,-0.0597201065682207,-0.0615243368139608,-0.0633738835654816,-0.0651883888807415,-0.066885585840922,-0.0682757222029244,-0.0691304728277741,-0.0696399446264873,-0.0701554291791248,-0.0709282210090601,-0.0720735788291676,-0.0733512962530926,-0.0744359540432993,-0.0751622149998824,-0.0754465998844189,-0.0753929055761975,-0.0750494833152029,-0.0740864517502535,-0.0720299483058674,-0.0683022142849195,-0.0625548683471503,-0.0551442083914955,-0.047062703717527,-0.039793315854041,-0.0346819970375254,-0.0322459322230954,-0.0320933763309403,-0.0333189575822776,-0.035286401009507,-0.0382879021284871,-0.0432232246998515,-0.0505587701331391,-0.0591709010085495,-0.0658395609350665,-0.0664463376784493,-0.0578996245667874,-0.0389933295354799,-0.0101185870619223,0.02769519533624,0.0730820160560055,0.123665703037349,0.175242908254439,0.222213525040429,0.259191501724523,0.283055942168526,0.293074275597408,0.288910408302441,0.270377876491381,0.236942538913416,0.190212614099416,0.134542070188029,0.0758604331053698,0.0197788413882308,-0.0294090643744221,-0.069182432343494,-0.0986102059868856,-0.117985938104148,-0.128669778159993,-0.132644758835462,-0.132112168722948,-0.129002110972591,-0.124559604234475,-0.119402673648715,-0.113838586161592,-0.108174180040137,-0.102869980454089,-0.0983053974291633,-0.0944851222401395,-0.0911503946840195,-0.0880163009000617,-0.085106825056639,-0.0827004286133415,-0.0810563802206452,-0.0800610165457253,-0.0793716670021632,-0.0785311977293188,-0.0773152122044307,-0.0758780512574817,-0.0745570656133116,-0.073509412021309,-0.0725020572697716,-0.0710991757672854,-0.0689782025175128,-0.0662520603174273,-0.0634587714894007,-0.0611293023436473,-0.0595409470821506,-0.0585319915608822,-0.0577308180132603,-0.0568542290014455,-0.0558087353849017,-0.0545192420935467,-0.0529539309793402,-0.0510230808522413,-0.0487162910765764,-0.0461915981648552,-0.0436673187832002,-0.0413472410383354,-0.0392443838735678,-0.0373462330278719,-0.035666292675507,-0.0343420481835019,-0.0332825400483969,-0.0321603052730748,-0.0305837918361889,-0.0284291750355341,-0.0259410789394378,-0.0235526829290716,-0.021454687532778,-0.0193997361242508,-0.0170457538787598,-0.0142537937314661,-0.0113308375181349,-0.00872926909362009,-0.00664013990324702,-0.00496336644366938,-0.00340642422484926,-0.00180649555403178,-0.000355422565779197,0.000859581271402312,0.0019968137864173,0.00335806316673314,0.00518980777493551,0.00734904939171489,0.00945366449819346,0.0113140729668604,0.0130426098888135,0.0149596411765348,0.0172434455677285,0.0197601245162912,0.0221395493377752,0.0242448523055876,0.0262883370252692,0.0286659770094377,0.0316611456505051,0.0349877555206335,0.038078067356343,0.0405833947423947,0.0425869266373859,0.0446153631035597,0.0470043054604881,0.0495375147240852,0.0517498319453783,0.053297297212576,0.0543267711860116,0.0553606663736882,0.0566158397571439,0.0579388826833634,0.0589184437809622,0.0593662557008356,0.0596074445277302,0.0601036372797715,0.0608850642806825,0.0615308630358209,0.0614320146530215,0.0604467582475773,0.0589035770331087,0.0573609212307522,0.0559350436125647,0.0544041002102408,0.0524786211299058,0.0501436072788976,0.0478080436169189,0.0457408377145723,0.0437811770772492,0.041416277938965,0.0382126496632964,0.0342021799574729,0.0298971907124944,0.0257683462772307,0.0218179797243899,0.0175827634682741,0.0125897843578504,0.00689361343830973,0.00113634351588409,-0.00405487699133061,-0.00849860165224083,-0.01259218913365,-0.0168854713264241,-0.0214675467533857,-0.0259551388931657,-0.0298996129344713,-0.0332251984768983,-0.0363362087020245,-0.0396142900136706,-0.0429704007367706,-0.0460324436200496,-0.0484415794057144,-0.0501790061271801,-0.0516017817509333,-0.0529891350175135,-0.0543927145519377,-0.05562552275129,-0.0565545663775446,-0.0573092921531641,-0.0581213508666222,-0.0591005004739227,-0.0600222365029568,-0.0605027856472271,-0.0603681916047713,-0.0598305494370966,-0.0593033588318607,-0.0590411724734501,-0.0589121855764043,-0.0585460912575955,-0.0578444153886291,-0.057002836502781,-0.0564088344914453,-0.0562417158891438,-0.0563527310849924,-0.056486574071977,-0.0565974270734226,-0.0568650552608614,-0.0574819800097412,-0.0584913865109337,-0.0595433832929744,-0.0603448473609041,-0.0608913189025788,-0.0613813906804961,-0.062095957847116,-0.06304077107383,-0.0637795445864092,-0.0639934026595535,-0.0637740743818663,-0.0635318177775856,-0.0638139515105461,-0.0647230559319618,-0.0658747993137799,-0.0668459874749242,-0.0674824625155758,-0.0680297324451902,-0.0688079967992124,-0.0698221537284051,-0.0707684609745107,-0.0711843966256019,-0.0708862900473089,-0.0701340218326079,-0.0692658014171536,-0.0684918913417272,-0.0676761831163704,-0.0664336028293684,-0.0645782176432903,-0.0621121007344493,-0.0591893620806449,-0.0561447288204808,-0.0530046811887333,-0.0496601045847309,-0.045950506611048,-0.041572118593766,-0.0364123891918996,-0.0305217218142843,-0.0240893037178794,-0.0175616567148724,-0.0112966696127384,-0.0054100060953468,0.000212568615786314,0.00582711554413621,0.0115096939535992,0.017056133361154,0.0222550007112131,0.0269526875360089,0.0311654244052086,0.0350255030396304,0.0384931154621348,0.0413624492639485,0.043485028160659,0.0448529453605728,0.0456618882364962,0.0460793054327272,0.0460556188526838,0.0453002786897866,0.0436297587382834,0.0411049081971931,0.0381416047495132,0.0351106821747293,0.0321023684784998,0.0289455738237404,0.0255117422641913,0.021927803014071,0.0186804169061535,0.0163104680724343,0.0149801584428055,0.0145752708399041,0.0147935131697087,0.0155408558615143,0.0169531103759015,0.0191071105561618,0.021681245377565,0.0239496654676478,0.0249699387189655,0.024064813782089,0.0210539907397199,0.0162691959619011,0.0102015658860483,0.00336411772765869,-0.00389422635501614,-0.0112155113032031,-0.0181902032908885,-0.0244682661804164,-0.0299341219719164,-0.0347433705925544,-0.0392072063497306,-0.0435155801279069,-0.0475690979801462,-0.0511504899334102,-0.0542000993426627,-0.0568810151123718,-0.0593846233231627,-0.0617875717902939,-0.0638439228543666,-0.0652649553879204,-0.0659715223793827,-0.066074688693988,-0.0658906511900379,-0.0656007603748574,-0.0651939767972365,-0.0646633090493779,-0.064069824334193,-0.0637310643306551,-0.063983483584299,-0.0648995495276327,-0.066256011485747,-0.0676258703749564,-0.0686299062248431,-0.0693249610615947,-0.0699330951623334,-0.070655765643519,-0.0715386626593943,-0.072360356330695,-0.0729391668543906,-0.0732295320923377,-0.0733205054401135,-0.0734919969076086,-0.0739483009386977,-0.0746668960272076,-0.0755665359309035,-0.0764113883746966,-0.0770275104118204,-0.0774742198987811,-0.0778798472161714,-0.0783549161716893,-0.0788924439631936,-0.0792920887994119,-0.0794113502572202,-0.0792330052406054,-0.0788962165567722,-0.0786330738591055,-0.0784682719244359,-0.0783266834991872,-0.078131889648756,-0.0779331472431706,-0.0778944014471069,-0.078145895660986,-0.0785991873570569,-0.079161785389671,-0.0798900078238389,-0.0810357268952876,-0.082954122815795,-0.0859759000395069,-0.0904864772162961,-0.0967111786954691,-0.104794004254373,-0.114826331697884,-0.126866548006458,-0.141054325238341,-0.157756064391017,-0.177504854736122,-0.201192560947982,-0.229796472486442,-0.263906178096114,-0.302981376227452,-0.34429346098669,-0.382647191218874,-0.411041820869202,-0.422068175324895,-0.409784839449105,-0.370735220896705,-0.303663697084359,-0.208558485087446,-0.0859946974153273,0.0616134291793786,0.227712417817331,0.400579543925352,0.565621770219619,0.710528596947692,0.82956820762561,0.923929955446863,0.998135532075621,1.05681521583666,1.10437296625884,1.14662862162475,1.19018976663618,1.23702812160381,1.27678432050258,1.28370874761897,1.22257112907494,1.06863816205818,0.824532177089696,0.523647446115238,0.216665322654909,-0.0497504079216127,-0.248304669373575,-0.374207725220712,-0.43799803910899,-0.45586205543197,-0.443024798466867,-0.411246341406657,-0.368992861039578,-0.322619775023253,-0.277148358915181,-0.236336530079393,-0.202628273541531,-0.176753011907889,-0.157962708075756,-0.144707908010473,-0.135273128505101,-0.128332579142601,-0.123127344342245,-0.119070989945597,-0.115662542769305,-0.112445167811693,-0.109085849026254,-0.105663192591149,-0.102367595997593,-0.0992496746284713,-0.0960774814539548,-0.0922783756939791,-0.087235353818619,-0.0806986106847167,-0.0730238392534148,-0.0653499559760333,-0.0591328302842449,-0.0555184762346994,-0.0547451468972887,-0.0561070048907462,-0.0584757916897239,-0.0611940350927256,-0.0646078193676971,-0.0697798600041603,-0.077256074447887,-0.0860601557205439,-0.0933915615484027,-0.0956603571799792,-0.0901732379242429,-0.076036960632866,-0.0535603675921502,-0.0234409730336651,0.0138741798763065,0.0575543141149441,0.105306799908579,0.152990349071704,0.19552950420355,0.228707980945081,0.250495783687753,0.260447078993718,0.258006728312021,0.241605282408333,0.210326958676394,0.165888775801804,0.112952064426044,0.0576032584547625,0.00536000785283275,-0.0400190623548313,-0.0764659134651437,-0.103217351733698,-0.120552355828165,-0.129630772050535,-0.132436388344918,-0.13135429251525,-0.128433302159651,-0.124849355444026,-0.120974587569947,-0.11671015975487,-0.112057812790028,-0.107268237959165,-0.102688547806338,-0.0985871831343861,-0.0950550005004072,-0.0921006989466756,-0.089727519843729,-0.0879948832921194,-0.0868636868847871,-0.0861076638401001,-0.0854387091511132,-0.0846212381528748,-0.0837157446323582,-0.0830072582167263,-0.082525316021918,-0.08204933903157,-0.0812439288946802,-0.0798926108342921,-0.0781754643512363,-0.0766926945771407,-0.0757644595097696,-0.0754522412754041,-0.0753831334184361,-0.0750919291308877,-0.0744642905100104,-0.0736328006810488,-0.0727909583685345,-0.0720649664061303,-0.0712391747815815,-0.07011273104533,-0.0687314837843918,-0.067288455078012,-0.0661214673546778,-0.0653629051816815,-0.0647369054123672,-0.063981146939811,-0.0629078106438177,-0.0616145177648912,-0.0604344042734402,-0.0594629962714208,-0.058474762883397,-0.0571322423345154,-0.0551484972494012,-0.052660163336461,-0.050124942259266,-0.0478373014293968,-0.0458600489682263,-0.0438967776128649,-0.0417251010957045,-0.0394521344666029,-0.0372579135917464,-0.0352752189964171,-0.0334111784397164,-0.0313221962989454,-0.0288484336451001,-0.0259699793498737,-0.022775032009097,-0.0193523259064205,-0.0156761808881032,-0.0116138544660998,-0.00715286036793245,-0.00241479375273347,0.00234139741812903,0.00703348598634279,0.0118056546085953,0.0168615937852426,0.0225074435382408,0.0289264270921814,0.035932415441378,0.0432947051317175,0.050746954087466,0.0580952634177492,0.0653095748410319,0.0723657549462205,0.0792517988855756,0.0859667814672162,0.0925401654788017,0.0990370863600342,0.105437617686756,0.11162468174616,0.117483398114128,0.122932628378349,0.128083938748187,0.133168945478801,0.138472819569766,0.144127471355013,0.14996003092735,0.155667446821393,0.160889910378349,0.165383945127518,0.169218614355035,0.172591914810715,0.175584423362026,0.178102825502287,0.179973453262193,0.181073449430484,0.181510291232967,0.181470264128209,0.180999285722249,0.179894504544006,0.177894086337345,0.174826211914466,0.170916808753036,0.166504598446497,0.161801736344351,0.156871838360717,0.151533109420169,0.145698292877114,0.139523522969634,0.133282437052931,0.127203869234808,0.121261324121519,0.115233707798443,0.108980283129541,0.102508894416537,0.0959634826237069,0.089571992329946,0.0834425629962281,0.0776229112834437,0.07215367136196,0.0670672844879476,0.0623673323317704,0.0580336502193108,0.0540202254267587,0.0502942211051198,0.0468966063683974,0.0438713947392868,0.0412601624999281,0.0389884189318263,0.0368341140988359,0.0345466308862652,0.0319815753942609,0.029225180188882,0.0265317963600621,0.0241217313659306,0.021921264686277,0.0198060013621233,0.0177085052221922,0.0157591202061559,0.0140876145354417,0.0126825341424996,0.0113407524890047,0.00978761285269556,0.00795784778212807,0.00596656888443215,0.00397273653411554,0.0020056546553661,4.68016291612534e-05,-0.00189974197495216,-0.00381413347731786,-0.00559695621028569,-0.00721172829593055,-0.00870269027801235,-0.0101156683582079,-0.0113615776488209,-0.0123543532160903,-0.013080154376271,-0.0137629677231377,-0.0146648016891072,-0.0158290804800537,-0.0170145333984126,-0.0179411834400413,-0.0185328834689813,-0.0189828389250851,-0.0196417980956195,-0.0205685080350624,-0.021637321979728,-0.0225461621540889,-0.0231148815248821,-0.0234632392643069,-0.0237572021285116,-0.0240533885886849,-0.0243326186066434,-0.0244605551667179,-0.0244474771755859,-0.0245449764131362,-0.0249313130064527,-0.0256829618546559,-0.0264970621287295,-0.0270123567897474,-0.027130602911603,-0.0269382630793914,-0.0267420064440544,-0.0266911482936692,-0.0266904113005438,-0.0265763103288819,-0.0262692063145033,-0.0257935794679481,-0.0253027516483384,-0.0248334558854523,-0.024395432097536,-0.0240038126291275,-0.023655748664443,-0.0233289348808452,-0.0230518964903704,-0.0228399307086271,-0.0227140931663904,-0.0227102188515318,-0.0228861692969684,-0.0233196231948392,-0.0239885503679033,-0.0247657148730894,-0.0254873462229545,-0.0259615869879149,-0.0261432966744993,-0.026131768424192,-0.0260763912827853,-0.0260959909460963,-0.0261762213260229,-0.0262117342833098,-0.0261288274400167,-0.0260631320271774,-0.0261412449809188,-0.0264989741933102,-0.0271502944204825,-0.0279661950781524,-0.0288260620113398,-0.0295535508634373,-0.0299437842450191,-0.0300219050031924,-0.0298344997299091,-0.0295930848816457,-0.0294977279105134,-0.0294474856110515,-0.0292695496917049,-0.0288858072491735,-0.0281961658942757,-0.0273754031904094,-0.0266115539437924,-0.0259848854803993,-0.0255681063147791,-0.0253564176088101,-0.025342752692993,-0.025575264028015,-0.0258344609340722,-0.0259683721893551,-0.0258543465382457,-0.0255805973683342,-0.0254461556235259,-0.0255589403538615,-0.0258433861713356,-0.0261951163332819,-0.0265284390714103,-0.0269082924156534,-0.0274225356916551,-0.0279330422393464,-0.0282799255277168,-0.02838964955348,-0.0283568659213839,-0.0284668459462135,-0.0288362011067586,-0.0293638908421191,-0.0298402545205351,-0.0300324560286371,-0.0299461220882252,-0.029733451919976,-0.0294586287470114,-0.0291407564114539,-0.0287209281575411,-0.0281556404387188,-0.0275970276072961,-0.0271393146864538,-0.0267365737852207,-0.0262884311723575,-0.025643682434914,-0.0248391775320799,-0.0241523546936585,-0.0237779390692076,-0.0237555368220355,-0.0240009041729491,-0.0243103954807955,-0.024567471310513,-0.024748831122013,-0.0249621472203912,-0.0252770837270997,-0.0256226781778999,-0.025839089693517,-0.0258180999259491,-0.0256308872059341,-0.0256241348872694,-0.0260883159244615,-0.02705922913838,-0.0282706429687412,-0.0293191135927177,-0.0300688825650512,-0.0305196156270446,-0.0307277403112747,-0.0305974453422571,-0.0299472313395022,-0.0287803544284467,-0.0274062427928431,-0.0262800520881099,-0.0257104395085925,-0.0255567155658778,-0.0254820646116753,-0.0252374753126793,-0.0249338338300172,-0.0248709565123055,-0.0253311091919695,-0.0261988617836919,-0.027050196147935,-0.0274848584995807,-0.027446196610904,-0.0271636273666049,-0.0269520196815313,-0.0268362179717629,-0.0267085430848779,-0.026566869742769,-0.0265118032702979,-0.0267722514149451,-0.027453865460716,-0.0282892359820626,-0.0290145999705357,-0.0295444953176917,-0.0301044862093956,-0.0310771298016844,-0.0325301951950512,-0.0342020705964979,-0.0357671089655962,-0.0370696976917776,-0.0383813740082694,-0.0401603670763936,-0.0425293375570965,-0.0452319825612776,-0.0476756548776451,-0.0494800757433733,-0.0506329606758113,-0.0514298888017441,-0.05204686472991,-0.0525365564337307,-0.052777854817749,-0.052836695492855,-0.0529332524823618,-0.053208842174818,-0.0535343489072431,-0.0536617694939952,-0.0533402944997273,-0.0526967301202139,-0.0521556197659052,-0.0520459771218336,-0.0524756269635831,-0.0531791989567077,-0.0538221175467325,-0.0542493206794688,-0.0545624019097794,-0.0550130047708814,-0.0557827503541329,-0.0567679337963581,-0.0577015476203322,-0.0583673857507288,-0.0587663416022941,-0.0590507933571398,-0.0594355188462896,-0.0599550766361106,-0.0604434433015954,-0.0606866582734097,-0.0604053444269782,-0.0595117275090509,-0.0579804749752223,-0.0555700420774087,-0.0519527581125479,-0.0468149333357395,-0.0402237468147972,-0.0329779747898067,-0.0263998820490059,-0.0218924295723227,-0.0201721227393572,-0.0207326179045282,-0.022467852726506,-0.0245880636886159,-0.0272706568743138,-0.0315924885089123,-0.0384548244929774,-0.047107282157763,-0.0549503323578499,-0.0582611403677907,-0.0539848768915432,-0.0407702558204114,-0.01871958602276,0.0116306886608412,0.0497923031715298,0.0947747002401455,0.144089436148052,0.193451158197933,0.237636713241918,0.272292858502316,0.295221772602934,0.305900030394873,0.303856806440069,0.286981004088027,0.254577328832722,0.208932202654088,0.155362240354689,0.100468811454641,0.0500558209248756,0.00806483769500592,-0.0235214282133886,-0.044555724731026,-0.0563133591079594,-0.0609244569942682,-0.0607657807261655,-0.0579164113920804,-0.0538245917006595,-0.0494227960544681,-0.045006499327628,-0.0407660130001332,-0.0368041505054192,-0.0333203806048679,-0.0304701583587499,-0.0282261989675214,-0.0263705089123651,-0.02469941603546,-0.0232277101271655,-0.0221556384643367,-0.0216268845733183,-0.0217544295608677,-0.0224233155790475,-0.0233990456998678,-0.0244521181353896,-0.0254363146013116,-0.0262492995192159,-0.0268365324705235,-0.0271520122189824,-0.0271422117554526,-0.0267978659088946,-0.0260975036273752,-0.0251006868194639,-0.0238332097315867,-0.0222973754950181,-0.0205416550984621,-0.0185456370727764,-0.0162715437136303,-0.0135864333556,-0.0102984815208862,-0.00640718646716033,-0.00198830210187503,0.00283431898297651,0.00784559718169035,0.0130634195598907,0.0186223275019715,0.0246426570126156,0.0311541480196455,0.0380357451473346,0.0450788912437539,0.0522731297360054,0.0595626555580306,0.0668742764440776,0.0740811346332209,0.0809132375635814,0.0872656023387389,0.0930680149932134,0.0983310084511868,0.103168095645741,0.107592540409359,0.111493365046273,0.114797271774341,0.117342802337326,0.119083656582504,0.12013106316602,0.120618525666704,0.120706527861908,0.120427289155522,0.119746707567192,0.118652186483203,0.11716073792169,0.115377552752317,0.113588591924747,0.112299073208989,0.111836218384126,0.112341946380452,0.113661134352232,0.115537617200374,0.117904825536731,0.120945820820946,0.124833923554713,0.129527577038208,0.134447615727693,0.138582419596949,0.141016042436488,0.141122009838786,0.138866247433217,0.134754674765239,0.129501232919751,0.123827492250427,0.118308612313731,0.113106807767579,0.108135703981742,0.103123318008033,0.0978028675446153,0.0922176076173477,0.086510848872317,0.0807322484213515,0.0749822095383301,0.0692201787416797,0.0635201039633896,0.0581311767416348,0.0533031895141987,0.0490869361069143,0.0454004807883181,0.0418553830315392,0.0380865076457019,0.0339290865927602,0.0293217484683456,0.0243071462269356,0.018931832287556,0.0132699610952733,0.00750861428157201,0.00201743024882178,-0.00308413469335484,-0.00785997219363377,-0.0126621562273414,-0.0177374340289113,-0.0230227185094453,-0.0281709672740093,-0.0328729056000825,-0.0370734938384516,-0.0408815386031506,-0.0444031298409041,-0.0475899129317427,-0.0502985688014154,-0.0526452023573253,-0.0547475380852697,-0.0567140555953871,-0.0584596484206499,-0.0597294469848044,-0.0604116966288888,-0.0607606946833542,-0.0612124906100414,-0.0620960723003182,-0.0632870871279578,-0.0643339228132955,-0.0648814629073241,-0.0649932391378257,-0.065002329021403,-0.0652434866672299,-0.0656255930531667,-0.0657333667554721,-0.065237546951835,-0.0642473190705777,-0.0632403500962264,-0.0627166803372914,-0.0628816085392899,-0.0636102612365689,-0.0648101156952912,-0.0667728911151239,-0.0701435816176583,-0.0755312532184184,-0.0831948939714074,-0.0928713027277964,-0.104234534114541,-0.117345713592435,-0.13269883371714,-0.151062282801792,-0.173101311458144,-0.1994075111844,-0.23056296481236,-0.266799559165347,-0.30697275988613,-0.347550905010363,-0.382132260638329,-0.402653648991399,-0.401518661869728,-0.373620648011699,-0.316886890449744,-0.230974692500431,-0.116066059868335,0.0265670440937497,0.191937681047447,0.369068290828377,0.542398248624142,0.697437233742075,0.826285982427702,0.929036501119024,1.01020869350636,1.07445597754384,1.12596659239691,1.17050607042072,1.21541855376647,1.26385502028035,1.30575968825403,1.3139709503121,1.25450040384989,1.10243313876844,0.858864992782502,0.554997040348208,0.240117050138252,-0.0386025247890377,-0.251727836057993,-0.391669492828384,-0.466881025145812,-0.492593680291007,-0.484090341021033,-0.453633898917818,-0.410476759992935,-0.361666788650481,-0.312614693203198,-0.267387546176453,-0.228672763360397,-0.197716777037481,-0.174417755155287,-0.157655563390604,-0.145799092684167,-0.137144278241029,-0.130304212376747,-0.124392100686023,-0.119010941877496,-0.114121382346077,-0.109758696266195,-0.106054555916701,-0.102949568176318,-0.100312455579509,-0.0980831317247734,-0.0963562761511234,-0.0951410977130042,-0.0944643624227454,-0.0941336635853852,-0.0939725500683461,-0.0938487278667756,-0.0936986632372898,-0.0935793402991363,-0.0935641157169452,-0.0935177505423583,-0.0933284430302646,-0.0929838410188128,-0.0926330732517764,-0.0924620536243475,-0.0925783365178541,-0.0928924992241703,-0.0932010858238419,-0.0934133773816664,-0.093532494591116,-0.093594672212759,-0.093500587212815,-0.0931810127500265,-0.0927009192147638,-0.0922798075956343,-0.0921771012009905,-0.0924579020870573,-0.0929308794684733,-0.0933900008446959,-0.0937589556735408,-0.0941252943473595,-0.0946353751531542,-0.0952562368615655,-0.095849625832883,-0.0960707237217903,-0.0956912716036939,-0.0947321443357065,-0.0934378166443603,-0.0921879479992575,-0.0913045436028079,-0.0907832577206478,-0.0904904330093971,-0.0902815363032893,-0.0901765059449752,-0.0903241609889802,-0.0907564504909195,-0.0913213805253496,-0.0917917781998014,-0.0919314617400916,-0.091750033728765,-0.0913966908448342,-0.0909634390636305,-0.0905020841531833,-0.0898470992875784,-0.0889582874561546,-0.087845788747848,-0.0866280266150247,-0.0854662825462303,-0.0844503580089122,-0.0835354393337374,-0.0826179886339192,-0.0815731183070665,-0.0803682952480055,-0.07905713428941,-0.0778294264942311,-0.0767952555403446,-0.0759084538805906,-0.0750624475924495,-0.0741043408403024,-0.073015219766988,-0.0717717451146515,-0.0703936666508412,-0.0689655636188252,-0.0676390344098503,-0.0665533592931125,-0.0656845551027361,-0.0648308518166505,-0.0638124198821787,-0.0626771551009288,-0.061634168126714,-0.0608432686665001,-0.0603057994993708,-0.0598446603982232,-0.0592699123914012,-0.0586345370430374,-0.0581220681501103,-0.0580413951745936,-0.0585427396234873,-0.0595261162886898,-0.0609148834996484,-0.0625732380097886,-0.0643964709837708,-0.0662255821600665,-0.067891204449616,-0.0692306122234624,-0.0703229620269385,-0.0713494070478324,-0.0724415345516228,-0.0735806936531949,-0.0745261666158055,-0.0750719116888523,-0.0753276948490626,-0.0755157464502271,-0.0758205189663057,-0.0761912822255406,-0.0763145618225473,-0.0759471753465117,-0.075133484811445,-0.0740893462545245,-0.0731231124811801,-0.0724037476716481,-0.071878778617261,-0.0713057718306699,-0.0706116201673127,-0.0698186366056694,-0.0689372780087213,-0.0679407867637778,-0.0667651651573296,-0.0653480111165213,-0.0637600648064784,-0.062057998239324,-0.0601860165652669,-0.0580530904378982,-0.0555808384277526,-0.0528381470919207,-0.0500129087160749,-0.0472851376752959,-0.0446492971501151,-0.0417905875265409,-0.0382088823410141,-0.0333762403073029,-0.0269332945998645,-0.0187619107450204,-0.00892156629916172,0.00194042386607524,0.0126200001116046,0.0216339115788923,0.0279438519122397,0.0317166320118354,0.0340163368786434,0.0357660723135708,0.0369480457765246,0.03637171544406,0.0330350832393899,0.0276667862069675,0.0233884535593741,0.024600661937671,0.0347477832398111,0.0549843506996644,0.0847000372581746,0.122893113607447,0.16867938638319,0.220216031235786,0.273642953620418,0.323005522068568,0.362288531451106,0.387949864474423,0.399073277489947,0.39542529008487,0.376115817465141,0.340557619231858,0.290827804702958,0.232240049128471,0.171676901092263,0.115586275118828,0.0686144724914782,0.0328630183983706,0.00825929890064106,-0.0068070594702123,-0.0145156213978997,-0.0169257186729138,-0.0158294505577878,-0.0128019889044147,-0.00909797671653538,-0.0054718641027532,-0.00217483261531456,0.000846669824499019,0.00355883977778652,0.00573830184704634,0.0071358498207929,0.00775247916242057,0.00783603757780223,0.00773913670207731,0.00755461633224277,0.00707080266004058,0.00604578778546619,0.00442767938814844,0.00252856530137298,0.000735685960477999,-0.000718448302942473,-0.00199616265280533,-0.00335977468717748,-0.00509074274977465,-0.00711493144024025,-0.00921739505435349,-0.0111725113360575,-0.0128496737697404,-0.0144850609274121,-0.0162616055862709,-0.0182152396549088,-0.0202622491852294,-0.0220617321481817,-0.023503655423061,-0.0245992599367702,-0.0254546872361804,-0.0262881689974075,-0.0272327110304782,-0.0282609151877674,-0.0292835678704193,-0.0301277928749383,-0.0308127822777487,-0.0314982258189235,-0.0322661700630297,-0.0331368793318816,-0.034057602799526,-0.0347570627078348,-0.035163909623009,-0.0352246231082211,-0.0349782973818822,-0.034510658812679,-0.0337648574505197,-0.0327782344686601,-0.0315372160910302,-0.0300708073712865,-0.0283687027446843,-0.0264931766643335,-0.0244809356388252,-0.0225225801695514,-0.0207323481144268,-0.0191475347246366,-0.0175965225620222,-0.0158932882699609,-0.0139595552857664,-0.0119016578145012,-0.00979171891556544,-0.00757808888006578,-0.00504148312697929,-0.00205853436433242,0.00136066311812731,0.00489750626654666,0.00827865747558632,0.0113479149807017,0.0142671645453071,0.0172572936081685,0.0204252283613917,0.0236215049498833,0.0264864060604393,0.0287834159897471,0.0305996773564571,0.0322834750960477,0.0342406140325853,0.0366105786188541,0.0391723359794049,0.0415718438889392,0.043612617264348,0.0453687337359929,0.0470925189547324,0.048914011190857,0.0507809766011457,0.0524220875402898,0.0536274448133904,0.0544162144428129,0.0549833594534697,0.0554043171011942,0.0556164166340541,0.0553652518080565,0.0544831912465026,0.0529545317766235,0.0508874660737159,0.0483994885831717,0.0454674919620207,0.0420336903002907,0.0381798505020067,0.0340306208393725,0.0296791791150272,0.0251469849191738,0.0204105680872719,0.0155276635757368,0.010613041839267,0.00567815883053576,0.000626856967964065,-0.0045347870318006,-0.00970350450745024,-0.0147020334314806,-0.0192942880457387,-0.0233610213114523,-0.0268541484382529,-0.0297246830257633,-0.0320211674181433,-0.0338289591712952,-0.0352739630054515,-0.0366372388414956,-0.0380190169493015,-0.039448972772583,-0.0408531497702403,-0.0420335448815781,-0.0428722244610952,-0.0433953452834331,-0.04371816775267,-0.0439517808332786,-0.0440964811668311,-0.0440371748840271,-0.0437004669952777,-0.0431524707008627,-0.0425818157795387,-0.0421499229625141,-0.0418710672406567,-0.0416131999079262,-0.0412803566775662,-0.0408775107665772,-0.040449738511512,-0.0401417420920367,-0.0399728458103213,-0.0399596261374603,-0.0401912857508773,-0.0407051466805978,-0.04141258161627,-0.0421589555811375,-0.0427815906553798,-0.0431404972008969,-0.0431496610597394,-0.0427602937760515,-0.0419752850642725,-0.0409414027470271,-0.039820087033617,-0.0388196641933735,-0.0380286912764751,-0.0375135680201613,-0.0372813224322175,-0.0373475053657957,-0.0376989761710821,-0.0383397044276999,-0.039095042697387,-0.0397310795348902,-0.0399166593155709,-0.0395446534713224,-0.0387647075363727,-0.037907386878743,-0.0372125663379819,-0.0367597303714085,-0.0364219471993668,-0.0361344169316222,-0.0358952260081633,-0.0357921574910579,-0.0359298860125121,-0.0363230505243244,-0.0368943074890816,-0.0376053950290038,-0.0383195219319643,-0.0388932772645609,-0.0391108933243036,-0.0388032123414939,-0.0381733387601475,-0.0376348150731517,-0.0375393857041185,-0.0379528098603414,-0.038480865231811,-0.0386225636370238,-0.0382779822703123,-0.0377560684864748,-0.0375799939106567,-0.0378922304998964,-0.0383624808875464,-0.0385106885719715,-0.0381115316144168,-0.03737294777058,-0.0367779340041955,-0.0365724161570227,-0.0366601321311177,-0.0367901407781736,-0.0367256293877226,-0.0365532960843283,-0.0364689896293418,-0.0364805303422558,-0.0364400181259502,-0.0361599498084765,-0.0357061826460288,-0.0353327509925644,-0.0351799183576639,-0.035078193289421,-0.0347133820774718,-0.0339117802018297,-0.0329038647076666,-0.0321904021793209,-0.0320862617273163,-0.0324709233867074,-0.0329080186674782,-0.0330596968455898,-0.0331043946032755,-0.0333018056060257,-0.0338465497918253,-0.0345207059890827,-0.0349092578130268,-0.0347532900020305,-0.0342078009726306,-0.0336186851551741,-0.0331621291558203,-0.0328058478353365,-0.0323552908865979,-0.0317596139856018,-0.0312773242940667,-0.0311214627709964,-0.0312020749081972,-0.0311537424158082,-0.0306481271355974,-0.0297220600764393,-0.0287376516860628,-0.0279830067355843,-0.0273452192509877,-0.0264970641093961,-0.0252294370998296,-0.023792832545937,-0.022744138739281,-0.0223694023439436,-0.0224680785533902,-0.022494689490643,-0.0220826505604442,-0.0213852329880382,-0.0209226364489354,-0.0210479730497654,-0.0215798466063487,-0.0219072850837159,-0.0215458659682196,-0.02059677162115,-0.0196479417608865,-0.0190935777752361,-0.019007847618955,-0.0190293357369358,-0.0188356958434538,-0.0184908801220154,-0.0182427086349896,-0.0183565046718217,-0.0187080055752079,-0.0188720294387798,-0.0186710476525988,-0.0182154086403303,-0.0178387882258808,-0.0177451022311527,-0.0176783607903161,-0.0172802806610843,-0.0165136748188787,-0.0155719504087471,-0.0147252843115562,-0.0139387272076536,-0.0129679589468789,-0.0116185880217641,-0.0100190241964589,-0.00858325673377439,-0.00760975020470494,-0.00699482287770139,-0.00631466337441634,-0.00522357805166168,-0.00388200321836808,-0.00273186934208892,-0.00213197920525689,-0.00205703479668623,-0.00205320224421181,-0.00167402856048641,-0.000944931162227855,-0.000153125054938771,0.000326765189591945,0.00053581465430486,0.00088300005252589,0.00163466496288672,0.00265138266932402,0.00344721799127823,0.00350679510630105,0.00276476080102941,0.00152878385198102,0.000197846533706162,-0.00104125406333431,-0.00236116718829955,-0.00409809044247644,-0.00640436499682495,-0.00915500023901354,-0.0119890586448325,-0.0145661404488332,-0.0168017821871986,-0.0189385783047915,-0.0212082441566325,-0.0236155875461331,-0.0259000993887076,-0.0276545848153071,-0.028690668678117,-0.0290161846990283,-0.0288481214357562,-0.0285003549970386,-0.028153552667446,-0.0278685593258251,-0.0275784488497574,-0.0270389589337562,-0.0260245587703876,-0.0244716317617094,-0.0224451724417371,-0.0201012999738946,-0.0174563719678427,-0.0145136235014108,-0.0111171817457688,-0.00715040778828988,-0.00257594014745015,0.00257406271276096,0.00818747848817497,0.0141025174114446,0.0201447276234703,0.0261307599379341,0.0320159973630345,0.037842335253856,0.0436264486408569,0.049311472530758,0.0546782571194845,0.059357260094205,0.0630927631789856,0.0660540874520022,0.0687993040638668,0.071967063634302,0.0760264481601693,0.0810581911181425,0.0867621306430728,0.0925597198366342,0.0973215915677543,0.0998206826204891,0.0992767971424157,0.0956713556504754,0.0897756955629587,0.0825267444916215,0.0740935604261453,0.0639867505254806,0.0518846583052913,0.0389340250936119,0.0284419274559574,0.0247315321811743,0.0310381538378347,0.0485847791604972,0.0769073390406673,0.114936250922513,0.161374673028695,0.213577331765327,0.266729034077755,0.314321624350908,0.350283291637987,0.371380645078883,0.377210458636037,0.36790756103774,0.343626528307527,0.304099732817084,0.251254763960102,0.189788691941957,0.125693630762282,0.0646569711846939,0.010955027818405,-0.0328755438945399,-0.0657952729504682,-0.0880880102194981,-0.101211336557601,-0.107391472385164,-0.10904074604612,-0.108136329508617,-0.105731757955454,-0.102301121949702,-0.0981104152463141,-0.093512723748396,-0.0890858235721407,-0.0851816812730623,-0.081818702336762,-0.0787648768581815,-0.075735478064658,-0.0728648245041311,-0.0705280711250367,-0.0690102811759888,-0.0683552202776488,-0.0681606865816827,-0.0679689839836177,-0.0676316249567486,-0.067162970454,-0.0667628319174088,-0.0664944334904096,-0.0662299929452213,-0.065968254785153,-0.0658553570399905,-0.0660749445928985,-0.0666950546552055,-0.0674711337196171,-0.0680925260893454,-0.06830967813866,-0.0681516414462397,-0.06787289177183,-0.067688450290948,-0.0675980261253232,-0.0674509059486099,-0.0670236697334182,-0.0662306867721058,-0.065248158391904,-0.0642527247597447,-0.0633815326980543,-0.0626182611959443,-0.0617760514388785,-0.0607702087965352,-0.0596925761907959,-0.0586553146002661,-0.0577998201612645,-0.0570818798971988,-0.0563701904880256,-0.0557069798220789,-0.0552856995638982,-0.0553591882389382,-0.0560884949291638,-0.0576133985967733,-0.060070007825082,-0.0637133239099069,-0.0687871476806036,-0.0754852257476856,-0.0839248049617692,-0.094193317310417,-0.106474874986229,-0.121196674518071,-0.138990261871328,-0.160742074492286,-0.187398568355236,-0.219485766152698,-0.256472575738511,-0.29585225049281,-0.332461635114708,-0.359204728938983,-0.368356013368839,-0.353680179732649,-0.311728597890656,-0.241437530670587,-0.142934136992968,-0.0167654015509139,0.13492829222058,0.305840316781377,0.484106740683001,0.654839182634887,0.80534455194518,0.92982564264477,1.02949493707122,1.10889483395164,1.17258622022953,1.22491023389473,1.27154842693177,1.31921408995421,1.3699354212976,1.41322706039836,1.42319516947932,1.36776933410897,1.22318703122504,0.989379628325602,0.694278050142362,0.383774693167681,0.103592574159299,-0.115895233300698,-0.264919258016034,-0.349898419682817,-0.384834187011844,-0.384287239354232,-0.360190992907125,-0.321666705243864,-0.27599060591739,-0.228981925591491,-0.185035877672782,-0.146958552155634,-0.116066181728541,-0.0925804214550339,-0.0760310367664279,-0.0654542952512533,-0.0594793142348698,-0.0565080757222323,-0.0551314817871312,-0.0543774355717379,-0.0538328016540442,-0.0534848528865538,-0.0534603615662268,-0.0538357271400365,-0.054637543311646,-0.0558337029568521,-0.0573914056977142,-0.0592387653527727,-0.0613087486127566,-0.0635083365361316,-0.0656779689046408,-0.0676956365069645,-0.0696064221509867,-0.0713509099691047,-0.0729697431141759,-0.0744449248251534,-0.0757059500460125,-0.076796597797457,-0.0777955110002097,-0.0788675751377939,-0.0801883656141316,-0.0816448834159014,-0.0829204902528579,-0.0837071708405618,-0.0839076557929598,-0.0837678687205884,-0.0837248920325379,-0.0839779729026987,-0.0844965216948622,-0.0850633957198256,-0.0855013788052529,-0.0858048787415122,-0.0860819036656458,-0.0862870450429381,-0.0863307746318757,-0.0861305376276123,-0.0857397587303628,-0.0853643095033768,-0.0851356535182501,-0.0850657941453217,-0.0850105940723534,-0.0848168248600269,-0.0845784951501823,-0.0844530109363331,-0.0846234661458843,-0.0850572101355384,-0.08564417456322,-0.0862210914988798,-0.0867590445522376,-0.0871946915293143,-0.0874163121149687,-0.0872654299637806,-0.0866132134818584,-0.0855855108616087,-0.084549158713028,-0.083854705416881,-0.0835747120280441,-0.0834341192212458,-0.0830217698932704,-0.082202063863449,-0.0812587928099483,-0.080665169185196,-0.0805987882163124,-0.0808734700682582,-0.0810868728567988,-0.0809293542951751,-0.0803298212682846,-0.0795051591321997,-0.0785690574259542,-0.0775142595633192,-0.0763794054819692,-0.0751936543152108,-0.0741696539297671,-0.0735121529609667,-0.0731757847666986,-0.0729472427868709,-0.0725320634530282,-0.0717404051128987,-0.070736422588604,-0.0698373202874187,-0.0692836936951417,-0.0691743184126441,-0.0691818328847117,-0.0689589428219497,-0.0682907819002905,-0.0672815263316794,-0.0663092641632136,-0.065551506626419,-0.0649371099403854,-0.0643759489734187,-0.0637715534797048,-0.0632686712232396,-0.063013765769764,-0.0629787376578466,-0.062994848189453,-0.0629079375337071,-0.0627172929305215,-0.0625467755376538,-0.0624399434452869,-0.0623674815827711,-0.0622250011482021,-0.0620762387851032,-0.062054144541999,-0.0622110402416847,-0.0624697393360286,-0.0625243825551215,-0.0621539958743575,-0.06135925277479,-0.0603761848087765,-0.0595338560615562,-0.0589241199646968,-0.0584238032206709,-0.0577946401781483,-0.0568690664386007,-0.0557445130996919,-0.0547078400771274,-0.053895340386954,-0.0530863953757933,-0.0518180711559604,-0.0498240415140747,-0.0473536789009426,-0.0448968220363568,-0.0427755243578989,-0.0409101297592138,-0.038865361796673,-0.0363646961412734,-0.0335457718848673,-0.0306813857904564,-0.0279749691329759,-0.0252712573446296,-0.0221949979859245,-0.018590036477654,-0.0145519959912055,-0.0103654819113327,-0.00619917940010335,-0.00199229841602638,0.00234452839613667,0.00673082158375545,0.0109502722874393,0.0148401041748556,0.0185803857154692,0.0224455030183576,0.0265875466205388,0.0309448688234885,0.0352789004858484,0.0394043930657862,0.0433993419805262,0.0474439429963817,0.0516049771231123,0.0558082543037367,0.0598138359388988,0.0634973702865035,0.0669352849839718,0.0702878427655366,0.073593607415237,0.076677053460949,0.0792827389752336,0.0812601670433838,0.0826998278566233,0.0838599965132624,0.0850475857222713,0.0864844166477649,0.0881346788658365,0.0897423842417138,0.0910020498654773,0.0917006949322269,0.0918570851426855,0.0916485671032058,0.0912958733023524,0.0908311204293594,0.0900995292126848,0.0889514494566635,0.0874210004486244,0.0857704290174566,0.0842552342755602,0.0829203755263572,0.081648105281356,0.0803206802707519,0.0788792774586073,0.0774071577585636,0.075975731223186,0.0744995072059237,0.0728336740108782,0.0708808152779931,0.0686709019935543,0.0663077209335075,0.0639079537205563,0.0614648559492552,0.0589421410774946,0.056238682608266,0.0534474477693859,0.0506995133893249,0.0481284027129434,0.0458226923109752,0.0437141637839945,0.0416828518945288,0.0398328510846864,0.0382481279742269,0.0369118869994168,0.0356917757732349,0.0342770095778255,0.0325556044400791,0.0305828002740646,0.0284349385044737,0.0260938794083224,0.0234007913129814,0.0202308207634437,0.0167206791635467,0.0130793724265563,0.00944052839501172,0.00583243698679359,0.00216109018414132,-0.00148538857818577,-0.00491087341797046,-0.0079501781324104,-0.0105529687749569,-0.0128915780177578,-0.0152628363351015,-0.0177801362829676,-0.0203913219948077,-0.0229115420282043,-0.0252445770182206,-0.0275724739077504,-0.0301125191542764,-0.0329090676248926,-0.0357835943630066,-0.0383683725977652,-0.0404674285085955,-0.0422058801016117,-0.0437977741717078,-0.0454114672717949,-0.0470265773199934,-0.048493179923515,-0.049736114763697,-0.0507664578166443,-0.05167077678281,-0.0525955854128448,-0.0535071856892021,-0.0542802173164468,-0.0548076335265215,-0.0550391907808305,-0.0550827978752423,-0.055039057462857,-0.0549666999879211,-0.054877295133359,-0.0546339785598036,-0.054174498219742,-0.0534612297495662,-0.0524230650377731,-0.0509934433703575,-0.0488613728144269,-0.0456052500996826,-0.0408467152047706,-0.0346701538774457,-0.0278824820666131,-0.0218406433494038,-0.0177722815566862,-0.0161937781853689,-0.0165885764384307,-0.0180635429968528,-0.0200300494454538,-0.0227645046885185,-0.0272209832643444,-0.0340378481929606,-0.0424787332595142,-0.0502020397568376,-0.0538370941632822,-0.0504678134666105,-0.0385490084166557,-0.0177951141380985,0.011412144888919,0.0484260161416773,0.0920396973053199,0.139716825135829,0.187411965576721,0.230230140449741,0.263944575122033,0.286224135048243,0.296316830628494,0.293499717887988,0.276508903619568,0.244751075843429,0.200030286214592,0.146783945668051,0.0907653819227328,0.0373859320682191,-0.00924739431190127,-0.0465658801677334,-0.0736689248768513,-0.0910609647523782,-0.100271532601375,-0.103372976840463,-0.102463679531232,-0.099181991598773,-0.0946115780308607,-0.0894238375335489,-0.0841418941833422,-0.0791894800423746,-0.0749500108558352,-0.0714905515901795,-0.0685351628377237,-0.0658474105414665,-0.0633443411613274,-0.0612291993733555,-0.0598468229183241,-0.0591753390786306,-0.0588707367206756,-0.0584124555888314,-0.0575972381412993,-0.0566827156464684,-0.056112639114797,-0.0560442356020486,-0.0562087261699878,-0.0561944531312534,-0.0557957594000864,-0.0552433244255548,-0.0549142810894669,-0.0549178749590903,-0.0550490301544424,-0.054970438055115,-0.0546512911019898,-0.0542559183352639,-0.0540837667376677,-0.0541805547977563,-0.0543945463337206,-0.0544205433114378,-0.0540406221022293,-0.0532698470987488,-0.0522885013118136,-0.0512731177441451,-0.0503372211916116,-0.049457990465317,-0.0486169414993213,-0.0476791059077865,-0.0465669782387364,-0.0452457024951699,-0.0438126824074665,-0.0424414800865355,-0.0412583956304031,-0.0402513017018102,-0.0394316594887666,-0.0386736099270138,-0.0378591408619101,-0.0369130987332234,-0.035831710902178,-0.0347077063152514,-0.0336917679281992,-0.032778889576653,-0.0318015049126458,-0.0306012362674136,-0.0291155331863048,-0.0274374307668232,-0.0257422488195964,-0.0241186669805587,-0.0225148597474488,-0.0207612276172059,-0.0187050104514495,-0.0163898016974576,-0.0139294264523209,-0.011387983896976,-0.00880324266916703,-0.00624867078996568,-0.00376872827752994,-0.00129019240382813,0.00135645696298277,0.00427281523103354,0.00744344253498665,0.0106371519244653,0.013652184113676,0.0164740225164094,0.0191954406546952,0.0219245809885613,0.0246303523727202,0.0271134036081856,0.0291616547661603,0.0307806000447111,0.032225821458159,0.0337683458618489,0.0354733084639758,0.0372346078904301,0.0387680827953293,0.0399893883778829,0.0410429419191719,0.0421202370176584,0.0433788970585743,0.0446364162985402,0.0456120363001944,0.046188457785097,0.0464359869644505,0.0465189260746935,0.0465321582530023,0.0462625463612705,0.0455132353856141,0.0441226888569061,0.0420951926870678,0.0396854805342775,0.037209732633962,0.0348162826745524,0.0324874662928883,0.0299821984548619,0.0271528352886096,0.0239777057141571,0.0206303088582603,0.0172649015778982,0.0138897623527822,0.0102795548335223,0.00624486936775589,0.00182812793742541,-0.00273454455398372,-0.00715472122655156,-0.0113078597285991,-0.015289488488336,-0.01922801390717,-0.0231265268844168,-0.0268741072564278,-0.030211646682698,-0.0329528236924083,-0.0350948686703704,-0.0366908261285426,-0.0379325879585335,-0.0389681501490564,-0.0398146613671148,-0.0404107998463149,-0.0408163440384735,-0.0411169009129971,-0.0414863672289748,-0.0420453975971838,-0.0426534921304832,-0.0431003116671643,-0.0432481473099299,-0.0431156711964626,-0.0428694415865166,-0.0425825579283321,-0.042092990767828,-0.041260152147226,-0.0401521428094259,-0.0389061965201767,-0.037761241771763,-0.0367896925228393,-0.0357456195989442,-0.0344828136910073,-0.0330492970650911,-0.0316387923102856,-0.0304732353111102,-0.0295228747525248,-0.0286588820953764,-0.0278541753688469,-0.0272218755598475,-0.0269017379685862,-0.0269659162220455,-0.0271209510613646,-0.027092001465677,-0.0268045957658004,-0.0264125404313618,-0.0261686551576545,-0.0261018455232337,-0.0259319528324786,-0.0253850732247021,-0.0244608364675708,-0.0234182720570308,-0.0226528531882318,-0.0223773486697991,-0.0223799123553668,-0.022282933594698,-0.0218845393202839,-0.0211188869616578,-0.0203517336935243,-0.01996543166821,-0.0200614813813626,-0.0205598016828375,-0.0210648197720242,-0.0212605075124448,-0.0210909261929956,-0.0207679520831537,-0.020596210054611,-0.0207569376632717,-0.0210484897596386,-0.0212044629821904,-0.0210818266057527,-0.020785607234126,-0.0205591891880002,-0.0205521586939486,-0.020695176248869,-0.0208263253315935,-0.0209149858277018,-0.0210485838691132,-0.0213844974135136,-0.0220325766077694,-0.0229285159910284,-0.0238417109855787,-0.0247018316176471,-0.0255212518513031,-0.0263934782975175,-0.0273894443701163,-0.0283829535464881,-0.0291864081933162,-0.0295761905267635,-0.0295512478934091,-0.0293116623636232,-0.0291291372790397,-0.0291182331607518,-0.0291415630609923,-0.0288722744805851,-0.0281338436057777,-0.0269103787973416,-0.0254560417922241,-0.0240142397670359,-0.0226219198765704,-0.0210798808181869,-0.0190458411677424,-0.016282037627226,-0.0127142481685578,-0.00838674872689811,-0.00341153793582329,0.00218317817629642,0.00833745962648654,0.0149037376473773,0.0216816607600108,0.0285074270395217,0.0352154685294173,0.0417907553859322,0.0482005136322588,0.0544583809283907,0.0605364426499053,0.0662497079910168,0.0712803028808638,0.0754607535326045,0.0787838619652876,0.0813553534164532,0.0833322742184952,0.0847456108043306,0.0855409078541358,0.0856270809428159,0.0848441461511513,0.0831077039783663,0.0804443532718565,0.0769432192638063,0.0728371129647039,0.0683948601895839,0.0638045223699692,0.05913715424745,0.0545099471116809,0.0500129247380835,0.0458384932495664,0.0420968861066351,0.0388075932307452,0.0360458332720187,0.0340079195919919,0.0328683427258464,0.0328052150343845,0.0336068039663252,0.0348061412149058,0.0359824289563639,0.0366515593780387,0.0363736177614521,0.0347354303765157,0.0313820954659186,0.0263541513550447,0.0200839967188933,0.0131199166831086,0.00609038004114614,-0.00067925393928,-0.00710374484578654,-0.0131169571460803,-0.0187542526737821,-0.024027753737635,-0.0289366790810869,-0.0334679933036912,-0.0376424644323407,-0.0415217085130668,-0.0451682871624003,-0.0485463171165207,-0.0515862869530047,-0.0541744032017576,-0.056265311914418,-0.0578858983606452,-0.059067070038679,-0.0599300216865424,-0.0606281618538894,-0.0613313442698278,-0.0620685647484696,-0.0627325037617728,-0.0631349287110153,-0.0632439149374769,-0.0630965043092824,-0.0628353887636361,-0.0625230529232704,-0.062073599217866,-0.0614001842789498,-0.0605842136354971,-0.0598923637241844,-0.0596227287703009,-0.0598593069992953,-0.0604663048986117,-0.0611809372591602,-0.0618611935838707,-0.0624782135172664,-0.0631499622172902,-0.063829289649202,-0.0642927794302731,-0.0642850617160793,-0.063856637905567,-0.0633100455534391,-0.0630729474977804,-0.0633308733413974,-0.0639134209605835,-0.0646168231016058,-0.0653528664193047,-0.0661860578094246,-0.0672195960366921,-0.0684567218490188,-0.0697281559331632,-0.071027239519267,-0.072529873126697,-0.0745441025832443,-0.0772408779885926,-0.080492600392041,-0.0839453715162507,-0.0873728576725597,-0.0906854387516061,-0.094002554701589,-0.0974259133592878,-0.100965099777693,-0.104783932271273,-0.109292176096358,-0.114958958731212,-0.122260312420507,-0.131319968593865,-0.141982313661445,-0.154074966480666,-0.167737386256111,-0.183532076959705,-0.20243651228761,-0.225416335686308,-0.253267180695459,-0.286375118067141,-0.324540368526483,-0.366341152363811,-0.408427681054284,-0.445180625879612,-0.469394293859548,-0.473978678390157,-0.45377514344224,-0.406385210198061,-0.331428047054596,-0.22923728713445,-0.100693126438776,0.0512285049097196,0.219060294828268,0.390365911774818,0.551025809774469,0.690431631701257,0.804872628945928,0.896615599609468,0.970183813005479,1.02965557268338,1.07933869761362,1.12544846660616,1.17492263315009,1.22923786519045,1.2768365610682,1.29104597100013,1.23643278481859,1.0886416569043,0.850355171807848,0.553904808010725,0.248024842049618,-0.0222134353173973,-0.229900538765618,-0.368975063437737,-0.44716223616217,-0.476922571470333,-0.469726618090831,-0.434557646554477,-0.378864361759066,-0.309241420108431,-0.231374205612115,-0.149907902349169,-0.0685963971102804,0.00909642753882764,0.0793408363840706,0.138387627563685,0.183565186677224,0.214003064364914,0.230274693394,0.232892078746306,0.220573915605365,0.193181362185176,0.152990243142615,0.104737567623382,0.0543737087325682,0.00737130650462672,-0.0322340657542477,-0.0620442651526651,-0.0815821076517284,-0.0922145761152371,-0.096208241533896,-0.0960006136071717,-0.0933731463311201,-0.0892224725486655,-0.0841133893111176,-0.0786118532757197,-0.073268129511778,-0.0685751007496486,-0.0645952462085537,-0.0610855542087694,-0.0577805902855668,-0.0546508739457022,-0.051880037972778,-0.0497183820084494,-0.0480475112834199,-0.0466089445810443,-0.0452966088913331,-0.0442228004653485,-0.043736959183402,-0.0439995550091683,-0.044719242505833,-0.0453625732282363,-0.0455380302621354,-0.0451814657912407,-0.0445014686001197,-0.0435766930022307,-0.0423410463201837,-0.0407111574152699,-0.0387972733981567,-0.0368507199008392,-0.0350826533214169,-0.0335591913226026,-0.0322193026992532,-0.0310640232239532,-0.0301016397983612,-0.0294552409782318,-0.0290939462584334,-0.0288187091517019,-0.028352994560133,-0.0275836903878124,-0.0265727431098184,-0.0254970280757703,-0.0244680454818806,-0.0235243600652116,-0.022610631331887,-0.0216953927208233,-0.0208094042141478,-0.020047835573534,-0.0194579035185994,-0.0190013250410866,-0.0185464582086986,-0.0177999807957939,-0.016636646061688,-0.0150144172422717,-0.0131336163903444,-0.0112173773212105,-0.00936071823138993,-0.00755930875351152,-0.00580841190303131,-0.00417081885284108,-0.00272984075019008,-0.0012617838556271,0.000584712572494282,0.00300325390026757,0.00584920418572882,0.00871985356011509,0.0112923671596728,0.0136450418080874,0.0161103056517002,0.0190967793153216,0.0225977854916674,0.0261912373447836,0.0294110992709894,0.0320194686430834,0.0341668580114349,0.0361128886299903,0.0379581393975833,0.0396257832831272,0.0411513958204855,0.0427031356031257,0.0444366804482815,0.0462936977270418,0.0479481582449926,0.0491127043707948,0.0497456329760667,0.0500855623284326,0.050401278373233,0.0508284353013818,0.051182512445134,0.0512482228450423,0.0509569250545304,0.0505291073018661,0.0501625968906948,0.0499173632046387,0.0495982654252559,0.0489913901857512,0.0481003763382164,0.0469433268172366,0.0455810516712555,0.0438107280345311,0.0413572039993014,0.0381491637299728,0.034368912470946,0.030445734095715,0.0267159101688746,0.0230669918080351,0.019224713910453,0.0150077484774918,0.0106814214391421,0.00678750903761358,0.00375597901285779,0.00154100477604242,-0.000230623319439904,-0.00189382374609452,-0.00337116977502137,-0.00426636220353913,-0.00423715477390237,-0.00336660744180271,-0.00206919930121326,-0.000840064536186659,0.000239431837886252,0.00150957908215765,0.00341584698848293,0.00617121317656731,0.00964928134967138,0.0136240137965959,0.0179064952795829,0.0224187890836855,0.0271180406402424,0.0320004560978987,0.037103756847458,0.042468352348649,0.0480342280352804,0.053571273953223,0.0587642829584646,0.0633008964680011,0.0671383082359766,0.070550936256209,0.0739848327890141,0.0776892530506645,0.0816500021277647,0.0855271811582377,0.0890025032517361,0.0919349939269637,0.0944054755165946,0.0966043522560828,0.0986762132285911,0.100540124673619,0.102059729367096,0.103111244183553,0.103723798688396,0.103979146532211,0.103886709605658,0.103298450030502,0.102197945756193,0.100653076770862,0.0988609096371272,0.0970211002795663,0.095112512459167,0.0929507599363629,0.0902861504959098,0.0871329023646925,0.0838595082718979,0.0808709210402056,0.0783365348863352,0.0760752746563871,0.07365066838691,0.0708753583189174,0.0678528044724713,0.0648037259568434,0.0619056937594076,0.0590205887309621,0.0558149896728399,0.0522986923076396,0.048551648325474,0.0447978684926185,0.0411430387270091,0.0374463125604879,0.0336538133983614,0.0299386070920505,0.0264528623991079,0.0234111223034214,0.0207405567325685,0.018161553824249,0.0155616526959726,0.012974250356506,0.0105249433531898,0.00817422119614089,0.00566706088119333,0.00282141636846194,-0.000192496166645323,-0.00312573719818827,-0.00569105114660705,-0.0079388640962974,-0.0102172825124848,-0.0127237929156781,-0.0153186087927413,-0.0176390863494241,-0.0193736865932679,-0.020667363140584,-0.0219163966332204,-0.023316246545053,-0.0248516133804471,-0.0262131911971972,-0.0272241598660408,-0.0280725926240203,-0.0290904176977384,-0.0303454908706071,-0.0318028542528691,-0.0332000161182862,-0.0345300867217325,-0.0359559877107766,-0.0375601868963626,-0.0391375096210071,-0.0404678000880566,-0.0414352761510865,-0.0422767230993645,-0.0433051347453109,-0.0445535280955121,-0.0459301880802626,-0.0471639112366703,-0.0482474171266809,-0.0494914963694825,-0.0510298583091702,-0.0527160257491838,-0.0542601010200893,-0.0553277184745656,-0.0560002847757861,-0.0565423705980154,-0.0571670785080842,-0.0578557835175404,-0.0583037080301347,-0.058222785138871,-0.0577854015461278,-0.0574343398886315,-0.0576667364860173,-0.058601201029856,-0.0598963292078365,-0.0609850997131624,-0.0615816641215908,-0.061844336539657,-0.0621698272800352,-0.0628349125641724,-0.0636890372252723,-0.0644412516308811,-0.0648920750277789,-0.0651689064472699,-0.0655290536594985,-0.0659637138364343,-0.0661485580462653,-0.065776950413838,-0.0649739764581798,-0.0642822314478138,-0.0642883866974676,-0.0650472913575166,-0.0660077544226497,-0.0664291976843036,-0.0660403553987986,-0.065178980263386,-0.0645136519683473,-0.0642659179946586,-0.0642162140032078,-0.0638964486153814,-0.0630521519445655,-0.0619956420444692,-0.0612216935224255,-0.0610023391397983,-0.0612948750229439,-0.0616799506942905,-0.0618048232068035,-0.061608598926106,-0.0612171275233832,-0.0607913466897167,-0.0603703896598031,-0.0598563079702019,-0.0592702231937143,-0.0586180936641804,-0.0578523385689369,-0.0569353847940242,-0.0557853658063001,-0.0544255666321792,-0.053054135263001,-0.0518588215003064,-0.0509074508812812,-0.050069223637017,-0.0491257115627951,-0.0480546607171478,-0.0470656768655182,-0.0464017334997277,-0.0461197479990509,-0.0459903843917734,-0.0457333089495863,-0.0452578252003654,-0.0447194426996789,-0.0441919564264182,-0.0435741753695941,-0.0426478163043639,-0.0413619100006151,-0.0399358606572416,-0.0387669460380297,-0.0379747559039848,-0.0374688856081506,-0.0370044239714623,-0.0364891615553991,-0.0362333110982422,-0.0365469643267469,-0.0376022753226966,-0.0391484434909198,-0.0407870476908287,-0.0423426027268134,-0.0439666557564673,-0.045811172217673,-0.0478623999426237,-0.0498077498425779,-0.0513664802819136,-0.052557775552385,-0.0536558080332622,-0.0548446712675205,-0.0560616338170665,-0.0570148210539219,-0.0574678138960645,-0.0575703847988395,-0.0576674892413856,-0.0580928853710379,-0.0588390499919043,-0.0595614748884998,-0.0599701087848984,-0.0601450017551951,-0.0603290730282995,-0.060765998062878,-0.0614142277255896,-0.0621241206569598,-0.0627348324266508,-0.0632821063158006,-0.0638024476600768,-0.0642136314225789,-0.0643723602298585,-0.064203525440411,-0.0637826654786716,-0.0633754239937274,-0.0632207352399233,-0.063278995546472,-0.0632041481915401,-0.0625284762648433,-0.0608127553729149,-0.0577522083918588,-0.0531573388997056,-0.04705827020943,-0.0399869732777183,-0.0331162732188911,-0.0278871236910219,-0.0252306243242961,-0.0249899391060211,-0.0262259010631164,-0.0281377681114481,-0.0309175497454845,-0.0356228369722679,-0.0429253088460233,-0.0517489143309212,-0.0589320446027001,-0.0602551535049805,-0.0524680490803938,-0.0343928722302722,-0.00634621955746084,0.0306859188769481,0.0755442432764832,0.126185655349921,0.178573097038116,0.227030344322401,0.265932791473278,0.29180064273679,0.303559824055169,0.300612862492706,0.281909812885136,0.247173863871341,0.198875608171603,0.142362008616592,0.0842227942986467,0.0303295201830245,-0.0149782351434933,-0.0493241500443892,-0.0723175109514867,-0.0852067247909643,-0.0901908550023825,-0.0898162999162124,-0.0861887491019508,-0.0808134246074202,-0.0747186440103335,-0.0685880320094978,-0.0628770094953652,-0.0577900371216613,-0.0533262484820887,-0.049443359636485,-0.0461844137245451,-0.0436557269606927,-0.0418209436040035,-0.0405135446014264,-0.0394376193012157,-0.0383429315901307,-0.0372629252630994,-0.036384300428887,-0.0358678679769065,-0.0357234537832726,-0.0357727486605794,-0.0358843801141475,-0.0360074260077635,-0.0361921516295852,-0.0364397794116739,-0.0366530138864338,-0.0366532496320693,-0.0363005657194424,-0.035680833396462,-0.0349780921055035,-0.0344870391440569,-0.0343495772141061,-0.0344935439491214,-0.034772211623222,-0.0349089548446729,-0.0347847605969498,-0.0344704971383768,-0.0341727623334665,-0.0340514591788611,-0.0340624026208329,-0.0339713583402665,-0.0335620803585223,-0.0327926251517864,-0.0319409257419016,-0.0312726036250178,-0.0308655392147252,-0.0304772549603411,-0.029644929373761,-0.0280672059548632,-0.0258026448536038,-0.0232289302039425,-0.0208803128738616,-0.0189724134534284,-0.0173132985398284,-0.0155901275994102,-0.0136560940093881,-0.0116698916884032,-0.00995920595262785,-0.00865902665740629,-0.00751253286662013,-0.00605124419566683,-0.00399106500286502,-0.00144403209607823,0.0011037460529143,0.00339550712507859,0.00562422706485157,0.00821503769455301,0.0116292344320799,0.0156913827015214,0.0198623711605051,0.023697363832699,0.0271258567650132,0.0305608158672158,0.0344494354756392,0.0387658806617926,0.0431010629054599,0.0469635881656605,0.0500481137594451,0.0525877481443496,0.0549823304932199,0.0574197247485773,0.0597300003457032,0.0615477957330167,0.0627188010706387,0.0634230860930183,0.0638811228149135,0.064161294654915,0.0641887335828785,0.0639521226837825,0.0637078059861059,0.0637664290493929,0.0642195181295723,0.0648000324556978,0.0650353464127269,0.0647194865426339,0.0640441688170968,0.0634313237392092,0.0631457189812023,0.0631151351027908,0.0630522652351815,0.0628535575513639,0.0626815761135643,0.0627033277398576,0.0628742083667459,0.062924333062121,0.0626364126139163,0.0621849269419564,0.0619822359515978,0.0623113045350991,0.0630221018328891,0.0636738334353866,0.0639621270520585,0.0639634245995701,0.0640560757099031,0.0646318105633206,0.065652353251825,0.0668494312642838,0.0679221850912488,0.0687890672604995,0.069573591843237,0.0703201507506162,0.0708078649182751,0.0706869238022576,0.0698067308683777,0.0683545603173497,0.0667623393064906,0.065175181705107,0.0633499467149362,0.0608682011522002,0.0574869795651164,0.0534253924233272,0.0490725411154116,0.0446705519848203,0.0402303935382008,0.0357087105483286,0.0311130051167872,0.0267105194718382,0.0228590996103401,0.0198683391706069,0.017940771912506,0.0171364523759001,0.0173338204238352,0.0183622153084477,0.0198925337789141,0.0216362799178977,0.02333757987525,0.0246583285962328,0.0251241816099854,0.0240710127722152,0.0208739500553491,0.0155531113916514,0.00869297585770509,0.00121215674440974,-0.00604851886036183,-0.0128733859134947,-0.019409141229591,-0.0258567143189467,-0.0322008533124992,-0.0381414636717209,-0.0434373868608394,-0.0482058745891891,-0.0526809694301455,-0.057016304028741,-0.0610994968074068,-0.0646819703783861,-0.0676454819816618,-0.070085628771986,-0.0722112126375882,-0.0740523184713944,-0.0755358494731425,-0.0764902206994909,-0.0768800477702418,-0.0769058000229423,-0.0769242288386322,-0.0771326369118766,-0.0774422280377439,-0.0776672128541757,-0.0777177495652224,-0.0777603782106952,-0.0781830295843533,-0.0791592975896439,-0.0805089811140585,-0.0818190732823446,-0.082640399891747,-0.0829405931544121,-0.0830915581552483,-0.0834950983157646,-0.0843382402446658,-0.08543149788561,-0.0863968452105023,-0.0869856193364022,-0.087172622163887,-0.0871876006367507,-0.0872364811232023,-0.0873639740347781,-0.0874645460077405,-0.0874575401837263,-0.0873669108419774,-0.0872795453678592,-0.0873083601179634,-0.0873564582441055,-0.0873543973909926,-0.0872869896440519,-0.0871894920395835,-0.0872044155065961,-0.0873184957816364,-0.0874294952093145,-0.0874735817784331,-0.0874141043370001,-0.087340360478258,-0.0874479709421724,-0.0879243986868857,-0.0890058910597391,-0.0909387164399401,-0.0938335217240692,-0.0977776108241688,-0.10275047274523,-0.108846540108774,-0.116382706690003,-0.125856682458614,-0.13748171449369,-0.151350213404614,-0.167520687097189,-0.186398572646529,-0.208914916719172,-0.236355840546633,-0.269720177371213,-0.308718030870631,-0.350804531764168,-0.391032612365216,-0.422355014610275,-0.437213802972787,-0.429236227974395,-0.3943240341472,-0.330783348557028,-0.238419104612247,-0.117862649818576,0.028469520815003,0.194418023201565,0.368662367066311,0.536672574096948,0.685630988252392,0.808969647362629,0.907093738255922,0.984178127731436,1.0449338564081,1.09409808252575,1.13786588691003,1.18315973114789,1.23204318091333,1.27386162020123,1.28225737566752,1.22107040790516,1.06523205712279,0.817968415885776,0.514139449930234,0.205817302917473,-0.0596249917803499,-0.255277396497654,-0.377259002375386,-0.437080133808455,-0.451581635210706,-0.436064211130211,-0.402141431643481,-0.358192589945853,-0.310554570002213,-0.26424704530096,-0.222985348389989,-0.188960910115467,-0.162756993080278,-0.14357005721153,-0.129773941570142,-0.119557238208564,-0.111422396651671,-0.104405789997979,-0.0980334211083465,-0.0922242031447088,-0.0869747643028951,-0.0823780669782917,-0.0784673688081913,-0.0752223363744809,-0.0725586124118878,-0.0702697310401266,-0.0682480214953899,-0.066460682877968,-0.0649980662098043,-0.0639455051508132,-0.0632106028450787,-0.0626135315414673,-0.0619863263611798,-0.061289069355808,-0.0606535874378308,-0.0601447681259264,-0.0596862321574198,-0.0590978097671083,-0.058227208412094,-0.0571264420891968,-0.0560465653558701,-0.0552063026609794,-0.0546587922333788,-0.0542690085385569,-0.0539244364560655,-0.0537327143508538,-0.0538810723441568,-0.054524622328646,-0.055610860306318,-0.0569208690437319,-0.0582249162844647,-0.0594356102292812,-0.060556683689378,-0.0615963761007572,-0.0625198372003977,-0.0633590406730429,-0.0642602237541691,-0.0654983503051647,-0.0672032356955539,-0.0692470074874079,-0.0711712125830366,-0.0725323430578662,-0.0733572023728038,-0.074007201151505,-0.0749571641878757,-0.0763098379772531,-0.0777421031134651,-0.0788742983592894,-0.0795803326022169,-0.0800447376370825,-0.080558605538841,-0.0811804400581359,-0.0818268570662236,-0.0824096956751016,-0.0829404514392591,-0.0835490835451592,-0.0843179036758431,-0.0851002867615817,-0.085719159310306,-0.0860201034484234,-0.0859939761679745,-0.0857936294330256,-0.0854905065139267,-0.0850290475817885,-0.0842617225450982,-0.0830011340532844,-0.0811392994946204,-0.0785725867871445,-0.0748845792594842,-0.0696035654432289,-0.0625496894076611,-0.0542524267806492,-0.046155395545071,-0.0400354190899768,-0.0368667589080785,-0.0364838943174813,-0.0377848060995809,-0.0398203342724016,-0.0427154970461258,-0.0473772781614013,-0.0543680144658553,-0.0627265554600204,-0.0693437499814535,-0.0702630789335085,-0.0623612590392384,-0.0442316681797592,-0.0160334706925314,0.0214623459957729,0.0669536482343163,0.117807041101671,0.169620076485874,0.216732699146516,0.254107125657445,0.279084907330428,0.290953529652885,0.288941894364518,0.272081874517649,0.239398234373857,0.192710964971437,0.136872078536284,0.0781544753747871,0.0224622860645107,-0.0258578091403836,-0.0643441983625374,-0.0922108175012583,-0.110154610652215,-0.119797533145952,-0.123086068262534,-0.121924354601944,-0.118010268818855,-0.112701948493914,-0.106989996776294,-0.101379021752624,-0.0958644168266493,-0.0903897294584304,-0.0850271664446843,-0.0800357279440909,-0.0757068156296926,-0.0720294663529588,-0.0685835013597349,-0.0649578127547465,-0.0610116695920759,-0.0568978343324394,-0.0528298679718301,-0.0487447425752154,-0.0444691653868654,-0.0398382766421616,-0.0350638855007983,-0.0304708592260118,-0.0261533922084097,-0.0218458889621547,-0.0171297875192755,-0.011918246936416,-0.0065761589305581,-0.00152106964389439,0.00311547928872423,0.00763280480744555,0.0123877822383671,0.0174905283575341,0.0227218596588108,0.0278728110112697,0.0329344130594491,0.0380898028137676,0.0433409743413776,0.0484089709221676,0.0528959513137711,0.0567192729290087,0.0600900639499729,0.0634023189220017,0.0668601286605475,0.0703914162805659,0.0736596292546457,0.0763745206046109,0.0784750345457366,0.0800218185305284,0.0812616714204641,0.0824385601978441,0.0835841132923105,0.0846444631552112,0.0854357200869269,0.085780775013767,0.0857239324578005,0.0855014985497535,0.0853901400260166,0.085565681475026,0.0859002628325014,0.086131797910022,0.0859512692150517,0.0852245424415604,0.0841737259981198,0.0831536636174146,0.082476036705859,0.0821538639846984,0.0819929903484847,0.0818495022990856,0.0817496576339671,0.0818245059963476,0.0821452768796651,0.0826526982862373,0.0831060099739163,0.0832872097169609,0.0831752998085404,0.0829597735225595,0.0828754606549037,0.0830536809664467,0.0833647225112213,0.0836074260251778,0.0836369357099798,0.0834627887241782,0.0831198587412147,0.0826353025288414,0.0819016557179931,0.0808086225919785,0.0793303449920384,0.0775789398827421,0.0757825368742676,0.0741015007227755,0.0725145041062478,0.0708569661657379,0.0689866558711209,0.0668885020648802,0.0647800410340142,0.0629930052824209,0.0616736359335248,0.0606214794504839,0.0594213964610539,0.0577750945418093,0.0556871451978763,0.0535018478260484,0.0514389835203669,0.0493711395954795,0.0469287912885736,0.0436879865290837,0.0396339018625761,0.035279028781346,0.0310626100792135,0.0272247394418058,0.0234557001954788,0.0192554033648273,0.0144815464311301,0.00942875159656031,0.00453126475599902,6.86421745701368e-05,-0.00430464340683836,-0.00899003809411731,-0.0140626912763132,-0.0192179287741863,-0.0239612789430567,-0.0281155148117522,-0.0319872179626067,-0.0358054803440888,-0.0395665806497605,-0.0429297470331067,-0.0455225652618556,-0.0473679307920364,-0.0488458561876231,-0.050283964528736,-0.0517678588606808,-0.0530974549100163,-0.054108874331344,-0.0549293808612327,-0.0558695727481189,-0.057112738559086,-0.0586182662032835,-0.0600904233763385,-0.0613808366078059,-0.0625712431688435,-0.0638467837712321,-0.0652173593340569,-0.0664473018377736,-0.0672494019717855,-0.0675372604487996,-0.0675291527605222,-0.0678264052986939,-0.0687652869360837,-0.0703641111326506,-0.0722128515742822,-0.0738878678641846,-0.0752025731088149,-0.0764187349801258,-0.0777861553069641,-0.0794431303636224,-0.0811701484880671,-0.0826286752259419,-0.0835464134736323,-0.0839557878864239,-0.0840184856933448,-0.0839631663524633,-0.0839267118525856,-0.0839095271194087,-0.0839538385036679,-0.0841054067363007,-0.0843260320627192,-0.0846280342698047,-0.0849205007772125,-0.0850507895692231,-0.0850449091816434,-0.085040225403448,-0.0851510788452734,-0.0853157309650485,-0.0852617312191541,-0.0847456535254406,-0.0837488059792563,-0.0825163320992924,-0.0814026286821404,-0.0805681475798753,-0.0798946363633039,-0.0791913389915849,-0.0784077097064945,-0.0777089592631024,-0.0772224352518674,-0.0768462378244416,-0.0763270920967764,-0.0754778258810308,-0.0743636798731556,-0.0732665904856159,-0.0724211383452728,-0.0718461154163146,-0.0713843066556349,-0.0709257926048151,-0.0704891774989304,-0.0701335399253674,-0.0699356820499512,-0.0697790210281049,-0.0694834466962591,-0.0690391684784881,-0.0685475413550182,-0.0681367614102569,-0.0678812480414002,-0.0676030326891732,-0.0671575682386388,-0.0665000022306262,-0.0656842308290652,-0.0649071579861727,-0.0642637853308418,-0.063723885790893,-0.063169739354471,-0.0623951880364922,-0.0613137862030918,-0.0600445999231149,-0.0588374440088879,-0.0579068890944808,-0.0572922993490432,-0.05696086813896,-0.0568033677430242,-0.0567648385608685,-0.0569159928390138,-0.0572268363182063,-0.057551942862316,-0.0577340100989993,-0.0576984532870541,-0.0574838728804874,-0.0571993709870761,-0.0568903333821332,-0.0564895329270038,-0.0558817358825885,-0.0551468635502296,-0.0545507672582536,-0.0542184346582308,-0.0540539323610953,-0.0537647712489357,-0.0531438941760991,-0.0523646059146329,-0.0518159661052746,-0.0518092261779596,-0.0522321284269287,-0.0525723636023345,-0.0523943898962633,-0.0515952682544736,-0.0506204194572514,-0.0499659645627057,-0.0497755571883458,-0.0498472723090877,-0.0497841488153903,-0.0494968270847761,-0.0491845285915165,-0.0491095969411983,-0.0493272461349578,-0.049645550299306,-0.0498748514403872,-0.050007783665462,-0.0502065279196934,-0.050673990978033,-0.0514252815246508,-0.0523360233870295,-0.0532703198644368,-0.0542208569857348,-0.0552455513215602,-0.0563630367704525,-0.0573887729063849,-0.0580744414133965,-0.0583151233572626,-0.0582474629392727,-0.0582657917365232,-0.0586031775971076,-0.0592038559732325,-0.0597532344044172,-0.0599549918394303,-0.0598396253293462,-0.0596234776381988,-0.0595692693963188,-0.0597410025762747,-0.0599904574630462,-0.0601589852950665,-0.0603455208227172,-0.0607408772835767,-0.0614529033343648,-0.0622494769161167,-0.0628102386697763,-0.0629667064432309,-0.0628367583434931,-0.0627018375178087,-0.0627345293142764,-0.062813599282762,-0.0626637725348028,-0.0621046740954759,-0.0612134166505473,-0.0602189609641847,-0.0592897143038506,-0.0583351420346766,-0.0572848562557013,-0.0561442343142348,-0.0550913844438766,-0.05427090193455,-0.053618758259727,-0.0529274713756748,-0.0520159077846941,-0.0508830015185447,-0.0496505612897799,-0.0483530671467344,-0.0468115543025963,-0.0447814019036115,-0.042240377732561,-0.0395547008120389,-0.0372172330267716,-0.0354670597780163,-0.0342318893094302,-0.0331458758409176,-0.0319086814136487,-0.0305119414021902,-0.0290740242243452,-0.0277369283395203,-0.02653720222532,-0.0254949389174077,-0.0247529767325406,-0.0243726041168618,-0.0243393772725357,-0.0244170702101808,-0.0243628197183078,-0.0241942128459067,-0.0242533227448707,-0.0248821537610595,-0.0261553693485648,-0.0276591256244709,-0.0288991309866312,-0.0297499125091575,-0.0304887687135283,-0.0314551856910961,-0.0327967104736238,-0.0342696755274576,-0.0354672643556128,-0.0363009352075896,-0.0369817635986804,-0.0379044755626763,-0.0392155350340653,-0.0406855122297356,-0.0419161121882629,-0.0426747103837391,-0.043139753148896,-0.0437221099616966,-0.0447124023469775,-0.0460390906062318,-0.0473879408697758,-0.0485794164723286,-0.0496144567344184,-0.0506087233156809,-0.0517128687735929,-0.0529028725285935,-0.0541556959770587,-0.0554344976404086,-0.0567465586981528,-0.0581020667859387,-0.0595271460373527,-0.0609904967342225,-0.0624569413808445,-0.0638508286924484,-0.0650694405461798,-0.0659288172644639,-0.0661721509249703,-0.065480462079979,-0.0635671611408165,-0.060185572988175,-0.0551398409492184,-0.0485876679343886,-0.0411832880298384,-0.0341255916468336,-0.0286419843623347,-0.0253407747623271,-0.0238894213822985,-0.0233297013204344,-0.0228519944174611,-0.0226403075750043,-0.0235481243186094,-0.0263218992482282,-0.0304421476084122,-0.0335521198260708,-0.0320729568175295,-0.0228643250047875,-0.00419073349710955,0.0239353114833383,0.0607157716999088,0.105312830406241,0.156445698983437,0.211617215910045,0.266636571529262,0.316182920282412,0.355734724382096,0.382957918318268,0.397388258344315,0.398672892767825,0.385680596734359,0.35749580321411,0.315509557696833,0.263973360799281,0.208809959376629,0.155685416658949,0.108798100812877,0.0704588726573353,0.0413117490807896,0.0207368573531311,0.00740856027191436,-0.000300610136276386,-0.00401827994368653,-0.00514078162592341,-0.00474698192533707,-0.00357805170135631,-0.0019488818498808,1.66099137896281e-05,0.00230049328052473,0.00498159451588147,0.00809131480163904,0.0115854380037833,0.0153506601304673,0.0190131231701204,0.0220624732660453,0.0239047753278318,0.0240489071559936,0.0221354695828421,0.0182492929057503,0.0127737984240095,0.00631547428415806,-0.000582246283751579,-0.00761124684649347,-0.0145969166316556,-0.0213452544108714,-0.0276726817795731,-0.0333661365892594,-0.0383935363766249,-0.0429848941181261,-0.0473026737596918,-0.0513529009078203,-0.0549022417001832,-0.0576348827894302,-0.0596026799526699,-0.0610696314057867,-0.0624132762991941,-0.0638233736465585,-0.06514683363538,-0.0661070003518633,-0.066599713404284,-0.0668109515965408,-0.0670253124491555,-0.0674025517766162,-0.067856133843444,-0.068194987491847,-0.0683897397936101,-0.0685387521467383,-0.0688120728873156,-0.0693043583012131,-0.0699099289011261,-0.0703521570759088,-0.0703998839024617,-0.0700942966787064,-0.0697390505283834,-0.0696598363943083,-0.0699628809445038,-0.0702395797362635,-0.0700463869550929,-0.0692078208518035,-0.0679907638292376,-0.0669133883663299,-0.0662264909730757,-0.0657311159623108,-0.0650304632736543,-0.0637698859792338,-0.0619965737776749,-0.0599637281646318,-0.0578229270781656,-0.0554572060483105,-0.0526890590729677,-0.049466059876897,-0.0461035567323289,-0.0430089228154199,-0.0404304136275801,-0.0382299455243365,-0.0361320088089243,-0.034011353962792,-0.0320445862597499,-0.0306469292399328,-0.0301433578827643,-0.030655796212471,-0.0320664829869761,-0.0344001367994668,-0.0378978640508815,-0.0429390694191822,-0.0498547937957923,-0.0588669074214853,-0.0699936726081324,-0.0834289617917011,-0.0996859775152088,-0.119427491246728,-0.143646050434864,-0.173354505247733,-0.208964764878465,-0.249560091101022,-0.291804702314312,-0.329477798984948,-0.354393646285476,-0.35830785115378,-0.335325047708287,-0.282775149695946,-0.20040014272443,-0.0887729553521405,0.0507294883656603,0.213560324113002,0.389392969921438,0.562900436727128,0.718766713247333,0.847979915381666,0.949898981274275,1.02912608976126,1.09097888702999,1.14014768779877,1.18244076500858,1.22507406556952,1.27099854691191,1.30992320186334,1.3141468095859,1.24982990786377,1.09189793049682,0.84154350659225,0.5302702336765,0.20797468939464,-0.0774715632429649,-0.296232826757104,-0.440864889457255,-0.520057093702091,-0.549315031575786,-0.543825152834362,-0.515658116180319,-0.47407473794412,-0.426314663273905,-0.378053523379254,-0.333557592772028,-0.295421405810887,-0.264705908679251,-0.241329185259495,-0.224248926479417,-0.212067473068356,-0.20319628240192,-0.19612176733646,-0.189819746550485,-0.183825290098786,-0.17812351013532,-0.172944614083195,-0.168435301154908,-0.164613228234512,-0.161447733654881,-0.158935244211284,-0.157122839047384,-0.156034825365501,-0.155477031580384,-0.155074167880748,-0.154485442620264,-0.153693727903739,-0.152930769061388,-0.152550847171238,-0.152549872043945,-0.152621056848139,-0.152377119617012,-0.151729979289192,-0.150944158133474,-0.150497404096813,-0.150646828124345,-0.151281476631842,-0.152017582867274,-0.15240217179005,-0.152333917307205,-0.151982452943271,-0.151542001041383,-0.151225021722884,-0.151045050304335,-0.150866898795016,-0.150592285251395,-0.150131949071139,-0.149489747689433,-0.14869642538827,-0.147626698915007,-0.146276105499808,-0.144690279128703,-0.143028225013806,-0.141637592119885,-0.140606807252136,-0.139863635435288,-0.139133610918196,-0.13812350507324,-0.136755992064147,-0.13517182266952,-0.133522532858758,-0.13193580208896,-0.130398961897633,-0.128898818867473,-0.127515751813031,-0.126300431234071,-0.125148218974873,-0.123963006360082,-0.122639851347876,-0.121283838629098,-0.120102128013896,-0.119232610269103,-0.118612202202801,-0.118114630068893,-0.11769194855983,-0.117453291629053,-0.117574235129252,-0.118023791794706,-0.118457907814979,-0.11849302810569,-0.11789006948888,-0.116731434240178,-0.115356634366905,-0.114076110620516,-0.113011820254634,-0.112076661868292,-0.111197800329652,-0.110262560099719,-0.10922900039204,-0.108133125731043,-0.107118936404411,-0.106373709068427,-0.106126596575586,-0.106471070500082,-0.107253287115785,-0.108080793123984,-0.108452813199536,-0.108216116217873,-0.107470871761811,-0.106622580928838,-0.106034981061092,-0.105766624556897,-0.105664314071489,-0.105506420952984,-0.105237911425495,-0.104872500645318,-0.104520178254317,-0.104202998546572,-0.103871359740106,-0.103437447569416,-0.102999207981523,-0.102824029725408,-0.103071665615702,-0.10368554832627,-0.104351758183265,-0.104703655519649,-0.104667810575717,-0.104411065505673,-0.104275383466404,-0.10449275568919,-0.105015821314023,-0.105535040920175,-0.105843768236484,-0.105820081682432,-0.105579949710742,-0.105192367257006,-0.104685870051861,-0.104049719024974,-0.103251696937787,-0.102258762531256,-0.101147803827545,-0.100008710473573,-0.0989093025397378,-0.0978521194567023,-0.0967072497437862,-0.0953674946930454,-0.0937355096453892,-0.0918938236765269,-0.0899843476851211,-0.0881642428627925,-0.0864418912453431,-0.0846087167412252,-0.0824011163399732,-0.0796665905657678,-0.07643297402174,-0.0729316243899446,-0.0694236946259464,-0.0660498193215513,-0.0628633801063029,-0.0596827433312998,-0.0562582906579902,-0.0524343025169812,-0.0481310198209178,-0.043482142397948,-0.0388123963723616,-0.0344058692811237,-0.0303860409810017,-0.026760676402435,-0.023344102573833,-0.0199416211081572,-0.0164310363311508,-0.0128836586832744,-0.00944678469718429,-0.00616051520942505,-0.00289469787686744,0.000585841322066252,0.00447560205819029,0.00877095034113607,0.0132256318956339,0.017573416460256,0.0216440796010477,0.0252989041624818,0.0284742111173451,0.0310291625757182,0.0328042890881393,0.0338038285899485,0.0341056505920537,0.033915107957319,0.0334160018658492,0.0326394681996436,0.0315578365605711,0.0301702209958879,0.0285800582261055,0.0270359684939726,0.0256513393178328,0.0243409863721982,0.022920425018168,0.0212220309008503,0.0192396095825867,0.0171341868522479,0.0149873237889204,0.0127836311742887,0.0103528443048895,0.0076378096521748,0.00468880779954838,0.00155831083879185,-0.00177573211348044,-0.00544537765046677,-0.00945069730946795,-0.013527521779668,-0.0172840068320974,-0.0205258135286453,-0.0233310338012803,-0.0261861279846807,-0.0295514417102038,-0.0334700461512484,-0.0375851327996386,-0.0413047266164009,-0.0443384395442372,-0.0468812394345463,-0.0493364999286409,-0.0520871621965483,-0.0552117610186806,-0.0585825570687146,-0.0620340824778571,-0.065520198003059,-0.0690919887754156,-0.0727083017709047,-0.0761888016121729,-0.0793358849303123,-0.0820630467287278,-0.0844489479406547,-0.0866556754218636,-0.0887606509777106,-0.0907060122106151,-0.0924934417754259,-0.0941941414794168,-0.0959728263034546,-0.0979346915741404,-0.100002996808921,-0.101871945626759,-0.10320078211432,-0.103828074949384,-0.103971175742826,-0.104055939833498,-0.104360402472007,-0.104729028999455,-0.10451312657524,-0.102954815651059,-0.0997359714031556,-0.0949529608163427,-0.0891536228397756,-0.0831439562029517,-0.0778531640679499,-0.0741778175263657,-0.0726474125242851,-0.0731326668789217,-0.0750022573655637,-0.0776324254210262,-0.0809651875073565,-0.0856342520403353,-0.0923566751317021,-0.100707934001978,-0.108354864893898,-0.111719285895884,-0.107440586154397,-0.0938559329444193,-0.0711482594185705,-0.0403371215970172,-0.00243945350454368,0.0414509828515954,0.0893469889449816,0.137462336864877,0.180779537303154,0.214747986904886,0.236912411227349,0.246696234792019,0.243870249711379,0.22661695470411,0.194259276743205,0.148743719836292,0.0951545989130443,0.0400727865003819,-0.0105286697366143,-0.0526592009269772,-0.084493276453065,-0.106001973914182,-0.118424714520165,-0.123656102667348,-0.123835427361339,-0.121010248446322,-0.11693075837344,-0.112714748613302,-0.1088871213513,-0.105361334365708,-0.101940158270873,-0.0985041701070422,-0.0951185677139727,-0.0918601861182581,-0.0886723253976135,-0.0855771869392574,-0.0826884149931304,-0.0802066380967076,-0.0782462665796466,-0.0767106117471721,-0.0753650309105555,-0.0740286652209083,-0.0726976338742156,-0.0715440638460554,-0.0707063958703677,-0.0701363036499995,-0.0696726211819318,-0.0691083033180679,-0.0685023569362555,-0.0680536160881714,-0.067883276800156,-0.068006563985106,-0.0682270171502782,-0.0682843538066726,-0.0681162286152136,-0.0677723938918103,-0.0673996459377607,-0.0671014774506745,-0.0669103694143589,-0.0668684508876441,-0.0668546436733263,-0.066680411535539,-0.0663067166244194,-0.0657117821513284,-0.0649674787699722,-0.0641676051486056,-0.0632246983019985,-0.0620146388895396,-0.0604390846299758,-0.05853125445033,-0.0564634290508903,-0.0544246489037565,-0.0524825880181282,-0.0506804197463361,-0.0488837107931724,-0.0469791402728964,-0.0448707287012658,-0.0425272261031598,-0.0399917065891808,-0.0373219120353147,-0.0345686949150811,-0.0318110694270244,-0.0290871175760314,-0.026272100716591,-0.023275232298801,-0.0200253947233318,-0.0166375046507372,-0.0134394384348281,-0.0106880166472023,-0.00842008623374231,-0.0064272998680067,-0.00431175289809009,-0.00174437330156794,0.00125586446522852,0.0043818360795532,0.00721433903338943,0.00963925829133128,0.0118764504250867,0.0142681291954771,0.0169052272588728,0.0195890624380412,0.0220827192023487,0.0243083492883225,0.0264449544383339,0.0287519820645811,0.0314191534100746,0.034302697701863,0.0370487929527847,0.0394237734840116,0.0413014486075406,0.0428029096402597,0.0440084874325249,0.0448562259107923,0.0452031544570988,0.044980717342254,0.0442312623589629,0.0432060598154467,0.0421258233812823,0.0411332633515676,0.0402258040646368,0.0391784609851748,0.0377612100013888,0.0358733392558918,0.0335852111264827,0.0310730322306768,0.0284833282015222,0.0258401041917951,0.0230631090904803,0.0199397511245731,0.0162660225473325,0.0120395442432786,0.00742270351089673,0.00262725082049435,-0.00206000746321149,-0.0065410260398556,-0.0108176424662286,-0.014874672174889,-0.0187871254316693,-0.0225583085240826,-0.026070707069804,-0.0292407214485577,-0.0320311406820624,-0.0344783664836307,-0.0367820610104434,-0.0390947464265784,-0.0414339116183006,-0.0437411931485162,-0.045877148468537,-0.047683646383345,-0.0490592865914554,-0.0499811704086768,-0.050537429800213,-0.0509588648585089,-0.0513960661906866,-0.0519419630233868,-0.0525398668434651,-0.0531146510865598,-0.0537444607809497,-0.0544774165055471,-0.0552814271193922,-0.0560295373224771,-0.0564225149661203,-0.0564754011669098,-0.0562971848597573,-0.0561543165884212,-0.0562090174748516,-0.0564055673099397,-0.0565619912810672,-0.0565686694808775,-0.0564038038402531,-0.0561901211091062,-0.0559855707961563,-0.0557063617979166,-0.055300080464143,-0.0547449950717862,-0.0539869139960816,-0.0530511950999092,-0.0519452249878185,-0.0507464136335689,-0.0496479430303094,-0.0488635356439358,-0.0484337787012321,-0.0482310182431102,-0.0480536166888643,-0.0476616612410203,-0.0470121274316707,-0.0462049421615206,-0.045390860491132,-0.0446089288464953,-0.0438603540366596,-0.0431002741873049,-0.0423241264327702,-0.0414872230595879,-0.0405223870761358,-0.0394303175373111,-0.0384052043781314,-0.0377241880343624,-0.0375664427570952,-0.0377966650165702,-0.0380950662236544,-0.0382040838174155,-0.0381048635387561,-0.0380606332721421,-0.0383992093576328,-0.0392222228507383,-0.0402780661941957,-0.0412866889686602,-0.0420287161459275,-0.0425441762850654,-0.0429445944617769,-0.0432835821051941,-0.043576394206095,-0.0438393876057568,-0.0441153798984358,-0.0444304528908609,-0.0447993938959054,-0.0451739111125995,-0.045571195791579,-0.0460381832541034,-0.0466666601090492,-0.047507882728876,-0.0485643175501668,-0.0496506748618442,-0.0506745379365318,-0.0515626641682176,-0.0523841260340489,-0.0533292491980439,-0.0545371824155832,-0.0559073141160909,-0.0572440147003101,-0.0583301018787601,-0.0592744160976798,-0.06039682071456,-0.0618718448673112,-0.063682790023544,-0.0656039631876969,-0.0673109361024751,-0.0687466123597197,-0.0700279670284736,-0.0712608158247717,-0.0725164962915483,-0.0737036988479139,-0.0747059478651472,-0.0755979258009482,-0.0763399549510427,-0.0769274519206638,-0.0772640160685691,-0.0772220583348524,-0.0768226734681995,-0.0761265871816501,-0.0751885374582682,-0.0739634572248496,-0.0723242918015438,-0.0701630770693066,-0.067573683552015,-0.0647786589091255,-0.0619150030641485,-0.0589492195592933,-0.0557708311275187,-0.0522128373246777,-0.0482246615580499,-0.0439082955137343,-0.0393126884134807,-0.0344053436303424,-0.0290694873504241,-0.0231609736355251,-0.0167131035800115,-0.00995465263416049,-0.00310714161172977,0.00372963539394149,0.0105363670781427,0.0173382715750134,0.0239181330149012,0.0300405442821142,0.0355638032145124,0.0405857876670861,0.0453536811795532,0.0500138491156268,0.0543772089659348,0.0581074141200623,0.0610220758348421,0.0631517149836424,0.0646253174415074,0.0654595381546402,0.065437296101554,0.06429556376346,0.0619299157434872,0.0584674586926622,0.0542299161497771,0.0495168020058379,0.0446069605671301,0.0397630011943517,0.0352643928849404,0.0313641760548468,0.0282317381195422,0.0259997482488784,0.0247818800364555,0.0247061127192582,0.0258914223078804,0.0283703784432126,0.0318559303129137,0.0357367794423104,0.0391257542199083,0.0411237639028327,0.0411696618799516,0.0390869786644337,0.0350974677926279,0.0296710669697957,0.0232725530053063,0.0164062863395735,0.00953294996227162,0.00297367266146409,-0.00306381904813424,-0.0086375408335633,-0.0138981776238296,-0.0190429569507227,-0.0240437993024562,-0.0287142043558408,-0.0328287693328436,-0.0363361862373114,-0.0393765456710341,-0.0421145675268528,-0.0446332892388408,-0.0468534421013214,-0.04866280083853,-0.0500199738273232,-0.0509613027539622,-0.0516735520637365,-0.0523121134455951,-0.0529860593663428,-0.0537620446051102,-0.054679050101481,-0.0558220703500501,-0.0571976744550896,-0.0587318411671779,-0.0602187322298269,-0.0614560972344014,-0.0624842437691275,-0.0634065473791133,-0.0643401988955658,-0.0653177975459523,-0.0661599769170518,-0.0667655788248796,-0.0673075472487548,-0.0679086165216352,-0.0687051080568335,-0.0695785490122147,-0.0702460631419782,-0.0705828606640002,-0.0707391451608357,-0.0710493209905301,-0.0718124784345158,-0.0730523996303339,-0.0745038524079303,-0.0758294274130374,-0.0769163400252514,-0.0778912871649378,-0.0789774234792833,-0.0803107717829411,-0.0817212907020591,-0.082837325658402,-0.0834040670932775,-0.0833939261633025,-0.0830360387700774,-0.0827251831101608,-0.0827015143933181,-0.0830527701402441,-0.0836195447766733,-0.0840943613769615,-0.0840779411690399,-0.083169812334763,-0.0811835234694388,-0.078459981465633,-0.0760773107576072,-0.0757199861266987,-0.0790912669223521,-0.0870962728266987,-0.0994420999369717,-0.115219867741986,-0.13395043239052,-0.15657787625481,-0.1851726992288,-0.221509851723888,-0.265133811191488,-0.312085109233002,-0.355285108475714,-0.386395314785862,-0.397337398866207,-0.381298273515302,-0.333267115334408,-0.250803857919359,-0.134532600083016,0.0117945454677021,0.182201445285571,0.368857529761484,0.56183192629395,0.748327931338735,0.912983578373691,1.04210149402614,1.12952378536293,1.17863255252992,1.19923681216183,1.20242122267125,1.19845028738347,1.1976816044566,1.2093191979547,1.23589428182065,1.26567172537682,1.27004578163769,1.21376060205509,1.07051012781623,0.839027567227888,0.547076926959796,0.24078145541724,-0.0341400986801279,-0.247683747214482,-0.390455134201878,-0.469200877898064,-0.498104926368839,-0.491996621775957,-0.46312199141669,-0.420675059017169,-0.371634472987646,-0.321392761828793,-0.273958629205166,-0.232268474139306,-0.197901824451997,-0.171135850550267,-0.151169287423127,-0.136491976392126,-0.125321299910873,-0.116239598992493,-0.108311008521207,-0.101043719160322,-0.0942288731257432,-0.0877221996383946,-0.0814901715148035,-0.0757593686536763,-0.0707350587405193,-0.0664713537472776,-0.0628992888553302,-0.0598232395389649,-0.0571494247816865,-0.0548853061205734,-0.0530375000218345,-0.0515605831711337,-0.0502897196575309,-0.0490373172095296,-0.047617713283865,-0.0458441933349373,-0.0436696313593621,-0.041104603276914,-0.0382260276050271,-0.0352731251834888,-0.032499642673802,-0.0300799447462936,-0.0280725208973244,-0.0263511222296129,-0.024714989174687,-0.0229959729542265,-0.0211724898445244,-0.0194175507888573,-0.0179131848233225,-0.0167345518432966,-0.0155836890550069,-0.0140293130727541,-0.0118597101221097,-0.00911316083346439,-0.00609083406197063,-0.00320244469962871,-0.000523581517901425,0.0020248162140817,0.00465321643125509,0.00747227748386432,0.01040727006576,0.0133660210553206,0.0163966072409521,0.0195175143187823,0.0227512720696082,0.0261536328111254,0.0296153673949623,0.0331129927894585,0.0366658935932703,0.0402903710227361,0.0440441309844918,0.0478695953184227,0.0515811600969933,0.0550478616363182,0.0581320806063854,0.0608808596381016,0.0635003366653246,0.0660714176022422,0.0685187179327378,0.0706713211099752,0.0723223881272233,0.073507788394575,0.0744819467396783,0.0754315307876842,0.0764262937005849,0.0772588801355234,0.0776658885545424,0.0776003693934298,0.0771970976861941,0.0766874039352847,0.0761761969832203,0.0754495145012716,0.0742691824422879,0.0725858428900241,0.070568034826911,0.0684922756304093,0.0663598933174445,0.0638306439632927,0.0605592167590639,0.056424946203179,0.051642774376009,0.0465786315095872,0.0414775193098009,0.0363956316469886,0.0312541759959804,0.0261120199107261,0.0211432849989044,0.0165212242808083,0.0123100294331058,0.00841956095867392,0.00475857601052028,0.00139824034032451,-0.00159122933864113,-0.00411972473948321,-0.0062099436454233,-0.00798009353708067,-0.00947093533090324,-0.0105975694338096,-0.0113657258487226,-0.0117830388110252,-0.011934207377521,-0.0119136000331592,-0.0116402368067207,-0.0109864983129918,-0.0098637061751375,-0.00842463523610687,-0.00705136012676248,-0.00606521618797817,-0.00559181990090332,-0.00544408838912702,-0.0052908771208876,-0.00494851067270922,-0.00440914730785955,-0.00380576775437938,-0.00327234032104438,-0.00264172307559912,-0.0017077085097994,-0.000359305728817455,0.00133883981605874,0.00326792088163085,0.00526263916078228,0.00729661482166351,0.00934607150398757,0.0113500105202836,0.0133304887662453,0.0153324605530919,0.0174669707786617,0.0199699860395398,0.0229104034747781,0.0260572289721578,0.0291277316507487,0.031894828819982,0.0344760928854911,0.03717292302119,0.040251399604842,0.0436728837327784,0.0471731337185325,0.050635491804778,0.0541567636550373,0.0580096882555035,0.0623417182503625,0.0669891839296715,0.0715551038610161,0.0757559702686784,0.0796798376085092,0.0836662058588949,0.0880028027831595,0.0926184572929955,0.097154793635105,0.101276569032941,0.104835744382406,0.107941256846965,0.110943789316362,0.113998942299557,0.11715924125363,0.120283436888577,0.123130974389386,0.125605820303175,0.12787955957863,0.130107660954529,0.132448402514449,0.13488472250867,0.137084263877445,0.138835372825732,0.139972077018386,0.140489998033796,0.140555078829114,0.140255892018812,0.13967471062522,0.138857879208294,0.137812017723393,0.136586628410708,0.135141976120668,0.133393202691111,0.131263231724375,0.128834803206659,0.12636435209888,0.124032605715427,0.121800980223965,0.119472758595924,0.116825313762331,0.113876291902889,0.110809564806541,0.107799345167598,0.104878637242739,0.101940758038687,0.0988799242540553,0.0956555682860883,0.0923576196339299,0.0890563409825914,0.0858616001468928,0.0827455658342352,0.079611017018195,0.0763040855056283,