-0.0331766585650596,0.0156683661260602,0.0649517123655388,0.109340249024147,0.144147634056485,0.16694351426191,0.177247660955862,0.174660593434089,0.157909059023588,0.126230469327397,0.0814490731624115,0.0283465481270073,-0.0268752675306875,-0.0784993918777845,-0.122419574197445,-0.156433707644719,-0.180078556309068,-0.194253889900601,-0.200732811617765,-0.201634896875723,-0.198963957621544,-0.194304439733827,-0.188717052485346,-0.18280326659754,-0.176858154914331,-0.171024695828158,-0.165394863248841,-0.160047695375119,-0.155045979678165,-0.150420828437198,-0.146163578334479,-0.142230133964885,-0.138553473219276,-0.135057698192468,-0.131669101485255,-0.128322773477267,-0.124965336967242,-0.121555135242497,-0.118061099194804,-0.114461125661864,-0.110740428200001,-0.106890071415866,-0.102905759806305,-0.0987868828939147,-0.0945357881694444,-0.090157242681441,-0.0856580430016072,-0.081046736693387,-0.0763334236911582,-0.0715296117177003,-0.0666481052433278,-0.0617029121400724,-0.0567091559852087,-0.0516829849540284,-0.0466414705308188,-0.0416024910131952,-0.0365845961450545,-0.0316068503289538,-0.026688652857058,-0.0218495345511359,-0.0171089311797718,-0.0124859350632057,-0.00799902739838759,-0.00366579503369815,0.000497363329342207,0.00447553527106086,0.00825558967273217,0.0118264600585698,0.0151794067712409,0.0183082478206866,0.0212095479089793,0.0238827552018892,0.0263302759516425,0.0285574781204383,0.0305726167357295,0.0323866758266439,0.0340131244188909,0.0354675871456424,0.0367674334758331,0.0379312932503778,0.0389785100041091,0.0399285472655336,0.0408003664773544,0.0416117981652368,0.0423789302931986,0.0431155391789437,0.0438325887146048,0.0445378227881241,0.0452354736083034,0.0459261050362852,0.046606605019146,0.0472703348893815,0.0479074358119671,0.0485052843044093,0.0490490799060297,0.0495225392137502,0.0499086622051229,0.0501905296725935,0.0503520853619785,0.0503788536885218,0.0502585442614518,0.0499814983017494,0.049540939592212,0.048933003781463,0.0481565342783554,0.0472126498779836,0.0461041075764477,0.0448345023912916,0.0434073628408544,0.041825214407332,0.0400886922551832,0.0381957873906997,0.036141306442078,0.03391661398833,0.0315097082097099,0.028905656612614,0.0260873904015464,0.0230368259795722,0.0197362526638503,0.0161698997233862,0.0123255758361459,0.0081962621341482,0.00378153758433013,-0.000911276898964352,-0.00586635189076813,-0.0110590310587749,-0.0164559997030733,-0.0220159437377662,-0.0276906670321616,-0.0334266022215999,-0.0391666228662716,-0.044852045390555,-0.0504246989920728,-0.0558289411774377,-0.061013505349589,-0.0659330836974492,-0.0705495716215394,-0.0748329267419644,-0.0787616219142739,-0.0823227093837637,-0.0855115106134181,-0.0883310009144283,-0.090790944906947,-0.0929068568092048,-0.0946988591798371,-0.0961905098933358,-0.0974076590750451,-0.0983773867056744,-0.0991270589302388,-0.0996835280051627,-0.100072488348548,-0.100317990139988,-0.100442102893566,-0.100464714676463,-0.100403448199861,-0.100273672882397,-0.100088590475666,-0.0998593754684907,-0.0995953500256504,-0.0993041785486793,-0.0989920688753884,-0.098663970308484,-0.0983237614533849,-0.0979740943415551,-0.0976175362337792,-0.0972557202812545,-0.0968897945382982,-0.0965205241537571,-0.0961483778633667,-0.0957736004565327,-0.095396272942485,-0.0950163620719539,-0.0946337607297651,-0.0942483205385368,-0.0938598778310126,-0.0934682739762497,-0.0930733708930191,-0.0926750624566657,-0.0922732824034561,-0.0918680092566181,-0.0914592687369354,-0.0910471340734694,-0.0906317245924713,-0.0902132029310803,-0.0897917759084239,-0.089367675792969,-0.0889411693245244,-0.0885125476061576,-0.088082120656747,-0.0876502120711269,-0.0872171539296812,-0.086783282068582,-0.08634893179246,-0.0859144340838767,-0.0854801123391391,-0.0850462796382377,-0.0846132365382977,-0.0841812693650435,-0.0837506489653744,-0.0833216298760767,-0.0828944498586796,-0.0824693297481657,-0.0820464735632443,-0.0816260688277876,-0.0812082870563512,-0.0807932843610769,-0.0803812021422904,-0.0799721678304651,-0.0795662956526124,-0.0791636874013817,-0.0787644331900186,-0.0783686121807351,-0.0779762932778985,-0.0775875357807393,-0.0772023899929818,-0.0768208977889612,-0.0764430931374404,-0.0760690025855306,-0.0756986457059247,-0.07533203551112,-0.0749691788385137,-0.0746100767102484,-0.0742547246715268,-0.073903113110843,-0.0735552275652402,-0.0732110490133261,-0.0728705541583845,-0.072533715703537,-0.0722005026205428,-0.0718708804134884,-0.0715448113783122,-0.0712222548588484,-0.0709031674998431,-0.0705875034972021,-0.0702752148455746,-0.0699662515832481,-0.0696605620342296,-0.0693580930473187,-0.0690587902319236,-0.0687625981903416,-0.0684694607462143,-0.0681793211688709,-0.0678921223932966,-0.0676078072354973,-0.0673781111566652,-0.0671512258267858,-0.0669271292652227,-0.0667058001621824,-0.0664872180595434,-0.0662713635275077,-0.0660582183376602,-0.0658477656332471,-0.0656399900977419,-0.0654348781230684,-0.065232417979182,-0.0650325999870844,-0.064835416697752,-0.0646408630798963,-0.0644489367199296,-0.0642596380379828,-0.0640729705242747,-0.0638889410005739,-0.0637075599118632,-0.0635288416536039,-0.0633528049401487,-0.063179473219815,-0.0630088751418506,-0.0628410450799187,-0.0626760237157056,-0.0625138586846892,-0.062354605283813,-0.0621983272375022,-0.0620450975136593,-0.0618949991741074,-0.0617481262328546,-0.0616045844776476,-0.0614644921804604,-0.0613279805719149,-0.0611951938683599,-0.0610662884949794,-0.060941430909056,-0.0608207930466966,-0.0607045438357999,-0.0605928343793151,-0.060485773280078,-0.0603833871792695,-0.0602855600656911,-0.0601919436297617,-0.0601018304941234,-0.060013983447055,-0.0599264179431051,-0.059836143213238,-0.059738880018621,-0.0596287900688487,-0.059498271476924,-0.0593378923619066,-0.0591365448605563,-0.0588818972354621,-0.0585611959394942,-0.0581624190195613,-0.0576757095539237,-0.057094933089607,-0.0564191241935151,-0.055653537199056,-0.0548100175235009,-0.0539064774001169,-0.052965393829397,-0.0520114288185088,-0.0510684669812387,-0.0501565273761681,-0.0492890904238618,-0.0484713566459236,-0.0476998164109366,-0.0469632821502745,-0.0462452641142151,-0.045527317429627,-0.0447928081674506,-0.0440304771158656,-0.0432372321788708,-0.0424197553748831,-0.0415947282426227,-0.0407877105148521,-0.0400309053306958,-0.0393601781514622,-0.0388117529692697,-0.0384189934697892,-0.0382096065159115,-0.0382035043749085,-0.0384114533181819,-0.0388345369649718,-0.0394643832073919,-0.040284047278879,-0.0412694093193799,-0.0423909290083302,-0.0436155982605597,-0.0449089419104832,-0.0462369329140543,-0.0475677107517168,-0.0488730176418405,-0.0501292951292634,-0.0513184117525497,-0.0524280189304507,-0.0534515552103498,-0.054387937245593,-0.0552409885503312,-0.0560186641242734,-0.0567321309874093,-0.0573947625562248,-0.0580210999536106,-0.0586258271440352,-0.0592228004116658,-0.0598241669855412,-0.0604396029454818,-0.0610756968379602,-0.0617355022288969,-0.0624182790102366,-0.0631194388847672,-0.063830704433333,-0.0645404831765873,-0.0652344481629898,-0.0658963054217204,-0.0665087172482343,-0.06705434085139,-0.0675169392159254,-0.0678825358208796,-0.0681406267371524,-0.0682854812294611,-0.0683172912653796,-0.06824182646316,-0.0680650211621763,-0.0677766967438179,-0.0673182749876971,-0.0665361856276159,-0.0651392592858606,-0.0627063921716528,-0.0588127395115082,-0.0533050134299824,-0.046617622311055,-0.0398651205024156,-0.0344846872788658,-0.0315353605736074,-0.0311394771458958,-0.0325541561521475,-0.034886697015518,-0.037914457383754,-0.042317933843746,-0.0490063313955011,-0.0578834568980803,-0.0669680111230575,-0.0727284529444314,-0.0715774910953876,-0.0613794312540791,-0.0417833222093055,-0.0134075748916235,0.0229773997595523,0.0663150450039925,0.114355364129063,0.163016053529313,0.206992178518899,0.241591464252353,0.264364380550885,0.27483652548176,0.272647573188766,0.256596590777665,0.225915570232939,0.182372774586642,0.130689250987602,0.0770455737966372,0.0271831860377084,-0.0147396654673127,-0.0464603816282045,-0.067459787372222,-0.0785964696466124,-0.0816258346169431,-0.0786784910153292,-0.0717976252054493,-0.0626294810628774,-0.052310172128076,-0.0415221713658464,-0.030642659076464,-0.0198972364391939,-0.00946265743661007,0.000493528745072976,0.00981629330960102,0.0183803196757879,0.02610092790389,0.0329327418763255,0.0388598478147448,0.0438839397251999,0.0480150950932295,0.0512668022739417,0.0536547324813393,0.0551979348403661,0.0559211928471869,0.0558576681563453,0.0550513463624675,0.0535590863151396,0.0514522725526679,0.0488182114161942,0.0457614833022443,0.0424053812727025,0.038893198976728,0.0353884299895046,0.0320721582180057,0.029135736002288,0.0267680640309257,0.0251393905567516,0.0243857158477703,0.0245964630218582,0.0258016726915837,0.0279480774889289,0.0308561608225363,0.034169731830404,0.0373369756018753,0.0396714271745962,0.040509649730528,0.0394178868999597,0.0363481735721726,0.0316539006268719,0.0259497331046697,0.0198897223282115,0.013975905071908,0.00847537346583471,0.0034509689557259,-0.00114591171996656,-0.00538290580526475,-0.00929198577020805,-0.0128568144973754,-0.0160267607208585,-0.0187392958228779,-0.0209389930928272,-0.0225889395750104,-0.0236750579836053,-0.0242054945895242,-0.0242072009343221,-0.0237212812441653,-0.0227981383960839,-0.0214930556357048,-0.0198625714290886,-0.017961798749573,-0.015842686428615,-0.0135531123766609,-0.0111366336875847,-0.00863269214157166,-0.0060770778370115,-0.00350247943426707,-0.000938987668409969,0.0015855383930478,0.00404529119017306,0.00641653260123065,0.00867779183959229,0.0108102024079237,0.0127979215634488,0.0146285667186629,0.0162936001727893,0.0177885960019452,0.0191133303713495,0.020271648517434,0.0212710776195918,0.0221221739565782,0.0228376140324062,0.023431061335308,0.0239158613281479,0.0243036352117864,0.0246028559408094,0.0248174960193281,0.0249458342328619,0.0249794967415291,0.0249027867520958,0.0246923272088573,0.0243170046845351,0.0237381632722658,0.0229099594075482,0.0217797579599004,0.0202884332658746,0.0183704430375028,0.0159535749019807,0.0129583298943591,0.00929700686930705,0.00487268422198418,-0.000421548752029738,-0.00670259908690168,-0.0140959804898703,-0.0227323833730098,-0.032741838943323,-0.0442460176565315,-0.0573513042973433,-0.072149159668631,-0.0887354968800912,-0.107263882491412,-0.128039660314886,-0.151631626705354,-0.178920797026169,-0.210946501019694,-0.248412126443666,-0.290848895513464,-0.335706019681874,-0.377890701903067,-0.41026517308308,-0.425162191865524,-0.416282935143256,-0.379913592749482,-0.314751423317861,-0.220746329205595,-0.0984285606050994,0.0499658210715784,0.218039143794045,0.39395305577064,0.562739216350815,0.711626079849129,0.834588196535764,0.932611332833479,1.01015172144579,1.07174085613066,1.12178230918074,1.16628194904159,1.21218939869968,1.26166588242723,1.30403996080618,1.31280081695242,1.25382657997338,1.10261578201661,0.860616675673923,0.558972869193368,0.246547213613606,-0.0298918600985056,-0.241152302903948,-0.379702692533918,-0.453943193803939,-0.479136462020961,-0.470516174372102,-0.440330503469502,-0.397703924794782,-0.349496660390552,-0.301005506138174,-0.256205947809101,-0.217713487554111,-0.186738250063047,-0.163207821712809,-0.146090350879901,-0.133840629571566,-0.124844843854507,-0.117753993289107,-0.111650201846947,-0.10605314578484,-0.100818745033716,-0.0959968217634585,-0.0917023552297956,-0.0880295604552082,-0.0850132352785663,-0.0826260762838135,-0.0807955069361361,-0.0794259241699901,-0.0784177651185341,-0.0776800590344566,-0.0771365981504811,-0.076727420180307,-0.0764075322010684,-0.076144404729199,-0.0759152110551063,-0.0757043210001246,-0.0755012474864201,-0.0752990703114493,-0.0750932809339517,-0.0748809655808121,-0.0746602445531561,-0.0744298974088602,-0.0741891184848329,-0.0739373611875984,-0.0736742411681412,-0.0733994776072602,-0.0731128585916901,-0.0728142213726425,-0.0725034416107192,-0.072180427922541,-0.0718451194795848,-0.0714974853166512,-0.07113752456613,-0.0707652671701547,-0.0703807748199062,-0.0699841419843247,-0.0695754969536611,-0.069155002857678,-0.0687228586364119,-0.0682792999505075,-0.0678246000223541,-0.0673590704008668,-0.0668830616430072,-0.0663969639046666,-0.0659012074326896,-0.0653962629487666,-0.0648826419147542,-0.0643608966677485,-0.0638316204119581,-0.0632954470531207,-0.062753050859903,-0.0622051459354283,-0.0616524854808186,-0.0610958608314283,-0.0605884046322902,-0.0600786987671122,-0.0595676751085665,-0.0590562970996045,-0.0585455573177566,-0.0580364746774687,-0.0575300912467134,-0.0570274686544757,-0.0565296840664482,-0.0560378257074046,-0.0555529879103097,-0.055076265674289,-0.0546087487161679,-0.0541515150034181,-0.0537056237600489,-0.0532721079412616,-0.0528519661775586,-0.0524461541944561,-0.052055575719983,-0.0516810728987172,-0.0513234162381845,-0.0509832941209516,-0.0506613019236064,-0.0503579307919433,-0.0500735561299128,-0.0498084258681133,-0.0495626485855681,-0.0493361815659686,-0.0491288223033918,-0.0489401893479803,-0.0487697146596876,-0.0486166323236252,-0.0484799676473729,-0.0483585266946702,-0.0482508862587558,-0.0481553841849801,-0.048070109789544,-0.0479928938506785,-0.0479212972191568,-0.0478525964472583,-0.0477837639147122,-0.0477114387148387,-0.0476318831106696,-0.0475409178784757,-0.0474338287394097,-0.0473052360261341,-0.0471489217010869,-0.0469576129610462,-0.0467227309455029,-0.0464341269674108,-0.0460798465013559,-0.0456459804509326,-0.0451166794564432,-0.0444744138420628,-0.0437005521188596,-0.0427762988492679,-0.0416839760571519,-0.0404085555357418,-0.0389392645353036,-0.0372710138123781,-0.0354053581319332,-0.0333507161243471,-0.0311216605993753,-0.0287372379852219,-0.0262184639210174,-0.0235853325946953,-0.0208538237941402,-0.0180334518316771,-0.0151258496099093,-0.0121247203410041,-0.0090172481228781,-0.00578678780431008,-0.00241641417117129,0.00110724680047193,0.00479052411687346,0.00863008834043448,0.0126115899556682,0.016709697083091,0.020889453399921,0.0251086908211576,0.0293211135098923,0.0334796290738528,0.0375395312126324,0.0414612160690297,0.0452122183051567,0.0487684606378754,0.0521147062969091,0.0552442788454715,0.0581581655509212,0.0608636507893827,0.0633726386273926,0.0656998228787354,0.0678608520981294,0.0698706188054622,0.0717417787583516,0.0734835790576382,0.0751010450439773,0.0765945472006223,0.0779597425193598,0.0791878617334732,0.0802662957795419,0.0811794225326052,0.081909608314589,0.0824383173304965,0.0827472649927832,0.0828195567421934,0.0826407611275211,0.0821998734200812,0.0814901331123148,0.08050966491675,0.0792619184050972,0.0777558866222744,0.076006089501338,0.074032314349942,0.0718591135834088,0.069515069439403,0.0670318463996796,0.0644430637673026,0.0617830320591296,0.0590854052905433,0.0563818015947206,0.0537004257033689,0.0510646810329971,0.0484917504278285,0.0459914444707764,0.043566819811693,0.0412203707042628,0.0389716993791935,0.0368915216820175,0.0351493723661008,0.0340548728303656,0.034043857818401,0.0355408666920107,0.0386738497823727,0.0429616846780247,0.0472455068897433,0.0500775398732485,0.0504341694158516,0.0482526932203696,0.0443187638695293,0.039523690847143,0.0340528554828893,0.027191068074865,0.0180390450127293,0.00676178091810221,-0.00456102000913676,-0.0123241755944237,-0.0129264052848127,-0.00426519596325831,0.013969849520519,0.0411361302990206,0.0764453128914748,0.118804013217661,0.165893092095222,0.213538477066086,0.256346688302855,0.289562551885308,0.310700243684413,0.319257695742959,0.314838574171457,0.296158317926182,0.262406617196829,0.215352502442561,0.159768532901201,0.101912904149382,0.0475997689323269,0.00103720973911772,-0.0354890756179019,-0.0614596686806662,-0.0777484672806111,-0.0861327415053128,-0.0887621157482923,-0.0876878261643269,-0.0845479342771294,-0.0804523988963416,-0.0760409029621279,-0.0716343097942672,-0.0673918350251448,-0.0634166670125173,-0.059797726324965,-0.0566080043862795,-0.0538889983282457,-0.0516416608539137,-0.0498298927505897,-0.0483927079744325,-0.0472584121428995,-0.0463560219561763,-0.0456222295415269,-0.0450043853770167,-0.0444608083814373,-0.0439596786792941,-0.0434773841856421,-0.0429968127041057,-0.0425058196573946,-0.041995952716708,-0.0414614402548837,-0.0408984175442993,-0.0403043526111897,-0.039677631932676,-0.039017269331847,-0.0383227066907671,-0.0375936809284351,-0.0368301372353251,-0.0360321733924845,-0.0352000039730881,-0.0343339363339094,-0.0334343526498113,-0.0325016939616702,-0.0315364434393719,-0.0305391069370626,-0.0295101895479382,-0.0284501673383601,-0.0273594538229143,-0.0262383610820008,-0.0250870557556242,-0.0239055104931505,-0.0226934518109707,-0.0214503057119547,-0.0201751475567357,-0.0188666349091576,-0.0175229729854222,-0.0161418688408559,-0.0147205012256898,-0.0132555051293163,-0.0117429748833227,-0.0101784896767736,-0.0085571651151536,-0.00687373399055757,-0.00512265869497555,-0.00329827668078416,-0.00139497904680745,0.000592579283457795,0.00266924118892951,0.00483908623867994,0.00710515446192197,0.00946916478363504,0.0119312399275079,0.0144896513011067,0.0171405986087451,0.0198780395012414,0.0226935842905026,0.0255764694743053,0.0285136214162669,0.0314898179508695,0.0344879509558345,0.0374893871735149,0.0404744179991877,0.0434227819339759,0.046314236383827,0.0491291490313099,0.0518490737394504,0.0544572725151667,0.0569391440783683,0.059282521563483,0.0614778071604763,0.0635179201755811,0.0653980468494958,0.0671151947662634,0.0686675709293226,0.0700538193701884,0.0712721700483643,0.0723195642297929,0.0731908309450117,0.0738779931611337,0.0743697799418696,0.0746514116124179,0.0747047089093388,0.0745085550790098,0.0740397133603637,0.0732739732956786,0.0721875703188531,0.0707587967235077,0.068969700985426,0.0668077587238732,0.0642673939461504,0.0613512344360918,0.0580710001042428,0.0544479467585037,0.0505128181675428,0.0463052938919885,0.0418729561548515,0.0372698329116136,0.0325546033717332,0.0277885741275454,0.0230335471043914,0.0183497039716716,0.0137936255801982,0.00941655040906508,0.00526295462193192,0.00136951035553845,-0.00223554925161075,-0.00553265758980366,-0.00851075926878745,-0.0111668176021639,-0.0135050460803391,-0.0155359345264925,-0.0172751440743382,-0.0187423430220406,-0.0199600489313285,-0.0209525322399717,-0.0217448244334797,-0.0223618607441527,-0.0228277745382369,-0.0231653489213468,-0.0233956212821757,-0.0235376288763343,-0.0236082782445155,-0.023622318167999,-0.0235923949151449,-0.0235291679387307,-0.0234414685320321,-0.0233364828693727,-0.0232199464207943,-0.0230963386689412,-0.0229690701119418,-0.0228406561149332,-0.0227125397048177,-0.0225862333430721,-0.0224624382629514,-0.0223414829718713,-0.0222234111954508,-0.0221080553660096,-0.0219950973903364,-0.0218841184007196,-0.0217746390726071,-0.0216661519236058,-0.021558146822938,-0.021450130759281,-0.0213416427511673,-0.0212322646442967,-0.0211216284258999,-0.0210094205961224,-0.0208953840668389,-0.0207793180050206,-0.0206610759963653,-0.0205405628713274,-0.0204177305066087,-0.020292572888071,-0.020165120694184,-0.0200354356315505,-0.0199036047254108,-0.0197697347384285,-0.0196339468609739,-0.0194963717862019,-0.0193571452542138,-0.0192164041222382,-0.0190742829927134,-0.018930911408939,-0.0187864116089598,-0.0186408968127554,-0.0184944700056907,-0.0183472231724393,-0.018199236930003,-0.0180505805057133,-0.0179013120058334,-0.0177514789221662,-0.0176011188274957,-0.0174502602153188,-0.0172989234447795,-0.0171471217576429,-0.0169948623402471,-0.0168421474093906,-0.0166889753068685,-0.0165353415927106,-0.0163812401320116,-0.0162266641745255,-0.0160716074298924,-0.0159160651445105,-0.0157600351886535,-0.0156035191645399,-0.0154465235477104,-0.0152890608753224,-0.0151311509958795,-0.014972822395512,-0.0148141136162541,-0.0146550747818479,-0.0144957692464599,-0.0143362753813246,-0.0141766885137265,-0.0140171230318875,-0.0138577146681984,-0.013698622971809,-0.0135400339798072,-0.0133821630940339,-0.013225258167935,-0.0130696028046764,-0.0129155198639623,-0.012763375170521,-0.0126135814119449,-0.0124666022073843,-0.0123229563213535,-0.0121832219884568,-0.0120480413049782,-0.0119181246317824,-0.0117942549395577,-0.0116772920117767,-0.0116208001933436,-0.0115732009091009,-0.0115356412088693,-0.011509357926404,-0.0114956791324885,-0.0114960244279366,-0.0115119037803995,-0.0115449145575744,-0.0115967363515007,-0.0116691231241384,-0.0117638921337959,-0.0118829090262844,-0.0120280683957448,-0.0122012690407868,-0.0124043830659338,-0.0126392179118658,-0.012907470347676,-0.0132106714331019,-0.0135501214690333,-0.0139268140127785,-0.0143413481542505,-0.0147938284450683,-0.0152837521594573,-0.015809883958048,-0.0163701185355495,-0.0169613324698024,-0.0175792272567639,-0.0182181664104504,-0.0188710105167269,-0.0195289552322135,-0.0201813783790259,-0.0208157034530765,-0.02141728797372,-0.0219693460754645,-0.0224529154825393,-0.0228468794035428,-0.0231280538119276,-0.0232713499040517,-0.0232500201111023,-0.023035993753311,-0.0226003051628825,-0.0219136128295889,-0.0209468029226403,-0.0196716646862391,-0.0180616192324857,-0.0160924780271706,-0.0137432040676823,-0.010996648780446,-0.00784024233362333,-0.00426662513648859,-0.000274223385881074,0.0041322105412731,0.00894105554822363,0.0141332309568677,0.0196815169490009,0.0255497723343726,0.0316920848728101,0.0380519573053863,0.0445617070485714,0.0511423201799305,0.0577040281600554,0.0641478481914001,0.0703682341798785,0.076256829653477,0.0817071199345448,0.0866195874850664,0.0909068283336166,0.0944980307806185,0.0973422745628612,0.0994102772152278,0.100694464169095,0.101207518676974,0.100979818618969,0.100056341827888,0.0984936962994575,0.0963579095603678,0.0937235056000686,0.0906741972957354,0.0873051630454937,0.0837262662025765,0.0800647272133954,0.0764649987099115,0.0730836427402608,0.0700785722388969,0.0675947986360745,0.0657506878485495,0.0646265658242174,0.0642507017541565,0.0645717897856094,0.0654123199609395,0.0664187817430196,0.0670507509993884,0.0666546985290639,0.0646303468496799,0.0606322740816561,0.0547055181835269,0.0472746368616612,0.0389857884496016,0.0304848052278133,0.0222410044424745,0.0144837714596777,0.00724646816944815,0.000462301930056662,-0.005947442296519,-0.0120247166904473,-0.0177660462041914,-0.0231374625270275,-0.028095633558481,-0.0326047377111594,-0.0366458219320723,-0.0402195309513622,-0.0433444151157721,-0.0460528720603825,-0.0483862114923395,-0.0503898150925594,-0.0521089859340189,-0.0535858100854568,-0.0548571484840208,-0.055953722328052,-0.05690014679898,-0.0577157081574372,-0.0584156742852009,-0.0590129783728117,-0.05952014661074,-0.0599510531032939,-0.0603209163451665,-0.0606406830828751,-0.060899870501166,-0.0610330091028884,-0.0608723369458464,-0.0601069064466283,-0.0582968300135078,-0.0550111661297235,-0.050113577748957,-0.0440751455593557,-0.0380433570504114,-0.0334536850017609,-0.0313171065894768,-0.0316840944068923,-0.033757866242396,-0.0366375392844574,-0.0401299539301347,-0.0449445913951821,-0.0519777037112912,-0.06106493544124,-0.0701319087402997,-0.0755838958921173,-0.0738348194272342,-0.062801465237864,-0.0421968364534125,-0.0126920415688216,0.0248895545744492,0.0694119603608506,0.118505212842351,0.167935179095855,0.21223670119185,0.246567448433273,0.268335189010388,0.276910956734465,0.271753019165348,0.251713280033426,0.21580090641306,0.16541243438861,0.104814713325376,0.0398167284224655,-0.024039838098491,-0.0826575221128024,-0.133799989146997,-0.177080732523584,-0.213750054905191,-0.24629921948797,-0.277806986441605,-0.310982037700562,-0.346998270100958,-0.384451020060248,-0.418946450893542,-0.443753503710748,-0.451476872651939,-0.436041852943248,-0.393918382869712,-0.323920952292469,-0.226045269423401,-0.100826853575812,0.0495041415618974,0.218585718045671,0.394704755185885,0.563138966974588,0.711426258099992,0.833797127299226,0.931362176865841,1.00859241815605,1.06999906214326,1.11997034707204,1.16448027188648,1.21040964166974,1.25986855623507,1.30227008209147,1.31139134995405,1.2564308584698,1.11413370909706,0.883725836173514,0.591161794853178,0.280150721177366,-0.00453606059439027,-0.231704603231355,-0.389509702985767,-0.482225315619213,-0.522687763703034,-0.525438488055248,-0.502984594729532,-0.464911402778507,-0.418420834828709,-0.369072544201348,-0.321191028631043,-0.27793379844098,-0.241228083874414,-0.211772865725299,-0.189202558273956,-0.172403724916497,-0.159906503407417,-0.150250456947736,-0.142245002729804,-0.135089610415721,-0.128366201845558,-0.121947827743328,-0.115876600240227,-0.110253639942498,-0.105164186543469,-0.100641938664093,-0.0966642014674457,-0.0931648351450023,-0.0900532959544305,-0.0872321071574454,-0.08460930788343,-0.0821054448477234,-0.0796562245785999,-0.0772123720039995,-0.0747380461391774,-0.0722087501449194,-0.0696092744446103,-0.0669319183236242,-0.0641750547228011,-0.061342008620244,-0.0584401805714733,-0.0554803394340939,-0.0524760163569235,-0.0494429467708706,-0.0463985236611348,-0.0433612415184253,-0.0403501249833743,-0.0373841488033393,-0.0344816660268564,-0.0316598691407791,-0.028934313883881,-0.0263185375295632,-0.0238238023448296,-0.0214589906289931,-0.0192306703005564,-0.0171433397346736,-0.0151998480052684,-0.0134019726618176,-0.0117511227135429,-0.0102491208262711,-0.00889900717513781,-0.00770579923344589,-0.00667713815509408,-0.00582375417801836,-0.00515969108185119,-0.00470224311347472,-0.00447157633444248,-0.00449002888050551,-0.00478110950821128,-0.00536823903014544,-0.0062733026177211,-0.00751510031141092,-0.0091077965007566,-0.0110594751512169,-0.0133709053163311,-0.0160346108709654,-0.019034320094848,-0.0223448461112661,-0.0259324202315483,-0.0297554693713486,-0.0337657984659721,-0.0379101117182808,-0.0421317847431805,-0.0463727848808034,-0.0505756301186868,-0.0546852784320476,-0.0586508484283953,-0.0624270878273838,-0.065975526876008,-0.0692652773364469,-0.0722734621260858,-0.0749852840689663,-0.0773937628377137,-0.0794991857288871,-0.0813083296058966,-0.0828335178460111,-0.0840915775954599,-0.0851027596197217,-0.0858896763791344,-0.0864763046836153,-0.0868870884640525,-0.0871461696392264,-0.08727675334765,-0.0873006000850986,-0.0872376772491967,-0.0871059265899154,-0.0869211414988904,-0.0866969361912848,-0.0864447881468503,-0.0861741345912367,-0.0858925079287901,-0.0856056936590972,-0.0853178994635895,-0.085031925693926,-0.084749330173062,-0.084470582475255,-0.0841948730472479,-0.0839212330704087,-0.0836476516640065,-0.0833715044956412,-0.0830896375063127,-0.0827984390898218,-0.082493902377925,-0.0821716792733226,-0.0818271277755172,-0.0814553539967016,-0.0810512500942455,-0.0806095291729864,-0.0801247580472084,-0.0795913886059801,-0.0790037883991078,-0.0783562709540399,-0.0776431262443966,-0.0768586516552389,-0.0759971837252614,-0.0750531308885703,-0.0740210073858355,-0.0728954684643313,-0.0716713469373051,-0.0703436911245374,-0.0689078041477162,-0.067359284506646,-0.0656940678159484,-0.0639084695375611,-0.0619992285028364,-0.0599635509801214,-0.0577991550099579,-0.0555043147008068,-0.0530779041534862,-0.0505194406620033,-0.0478291268214469,-0.0450078911590428,-0.0420574268909652,-0.038980228393411,-0.0357796249599248,-0.0324598113961555,-0.0290258749763089,-0.0254838182510265,-0.0218405771532019,-0.0181040337959775,-0.0142830232963835,-0.0103873338904461,-0.00642769953408168,-0.00241578411310724,0.00163584367882879,0.00571374578625865,0.00980366158179527,0.01389056701557,0.0179587470928048,0.0219918825478692,0.0259731514200058,0.029885346001609,0.0337110053187473,0.0374325629131463,0.0410325092269951,0.0444935673536324,0.0477988803209731,0.0509322074388872,0.0538781265908789,0.056622238713863,0.0591513701214463,0.0614537678225991,0.063519282606702,0.0653395344441811,0.0669080547221742,0.068220400023492,0.0692742325824754,0.0700693632201536,0.0706077534677278,0.0708934747124238,0.0709326235098042,0.0707331936549683,0.0703049071332461,0.0696590076113497,0.0688080216090091,0.0677654938335795,0.0665457042933001,0.065163375663283,0.0635813839193655,0.0618664373463072,0.0600328360430793,0.0580942349708418,0.0560634350989775,0.0539522136324246,0.0517711977931192,0.0495297848674007,0.0472361093651853,0.0448970562569927,0.0425183174533235,0.0401044870542176,0.037659189501754,0.0351852336770097,0.032684785239959,0.0301595491404007,0.0276109542338439,0.0250403323017506,0.0224490844654808,0.0198388289470579,0.0172115253049084,0.014569571588976,0.0119158722439178,0.00925387596972853,0.00658758405978324,0.00392153091944574,0.00126073947800916,-0.00138934499011005,-0.00402293854134058,-0.00663401529560643,-0.00921641266141023,-0.0117639405693634,-0.0142704904856081,-0.0167301403702743,-0.0191372522345336,-0.0214865594835902,-0.023773241757028,-0.0259929854312889,-0.0281420282647453,-0.0302171867732206,-0.0322158647556895,-0.0341360408983241,-0.0359762325697244,-0.037735431871494,-0.039413008962255,-0.0410085770663789,-0.0425218140799803,-0.0439522381689182,-0.0452989401628535,-0.0465602846381325,-0.0477336045026096,-0.0488149297117968,-0.0497988070004926,-0.0506782800583055,-0.0514451029042219,-0.0520902474776021,-0.0526047351824986,-0.052980768578433,-0.0532130819741145,-0.0533003306429045,-0.0532463116006287,-0.0530607520858091,-0.0527594295315607,-0.0523634593676239,-0.0518977145943044,-0.0513885031264036,-0.0508607935345902,-0.0503354086259887,-0.0498266640769883,-0.0493408941774431,-0.0488761776274629,-0.0484233751813005,-0.0479683583182183,-0.0474950933633147,-0.0469890941277158,-0.0464406984755056,-0.0458476682626132,-0.0452167428669005,-0.0445639615369426,-0.0439137684692218,-0.0432970886799039,-0.0427486848739789,-0.0423041631514484,-0.0419969908822804,-0.041855836890536,-0.0419024612721102,-0.0421502889681454,-0.0426037131011687,-0.0432581008883517,-0.0441004209112936,-0.0451103755885309,-0.0462619043073891,-0.0475249173816796,-0.0488671255588936,-0.0502558416121657,-0.0516596476803123,-0.0530498429304831,-0.0544016094018072,-0.0556948580806398,-0.0569147408188814,-0.058051835130356,-0.0591020268920534,-0.0600661296303115,-0.0609492879859163,-0.0617602172628199,-0.0625103359002935,-0.0632128173268885,-0.0638816521715277,-0.0645307141519753,-0.065172886781918,-0.0658192756421755,-0.066478531786342,-0.0671563088104717,-0.0678548734045472,-0.0685728862189706,-0.0693053659937098,-0.0700438446058833,-0.0707767137434496,-0.0714897554064406,-0.0721668388662852,-0.072790757017944,-0.0733441669523943,-0.0738105969078909,-0.0741754930989225,-0.0744273144514818,-0.0745587086075826,-0.0745676290896613,-0.074457450814017,-0.0742333696556536,-0.0738902930032654,-0.0733871919709496,-0.0726072119243313,-0.0713144985709218,-0.0691402907510045,-0.0656550204262488,-0.0605742735032258,-0.0540568099988062,-0.0469053762156146,-0.0404251319473242,-0.035883310730346,-0.0338687949584475,-0.0340386562695168,-0.0355068173882049,-0.0376271583755651,-0.0405746582159017,-0.0452120641124368,-0.0521929695343125,-0.0608396034344227,-0.068668916225093,-0.0721163864142687,-0.0680527298789515,-0.054932532245225,-0.0327561241670462,-0.00220391887541242,0.0359654940721475,0.0806010793296415,0.129288489247801,0.177894071026306,0.221300106046956,0.255151719513785,0.277250245185546,0.28717188622808,0.284534564850103,0.268126812793748,0.237149665598605,0.193148632733759,0.140482076116256,0.0850093347300007,0.0323146814146957,-0.013429481544111,-0.0498205350848318,-0.0761238650904572,-0.0929580074829817,-0.101865604553166,-0.104833290714883,-0.103845226801664,-0.100558654154623,-0.0961533105059013,-0.0913466425636927,-0.0865149656010159,-0.0818418496272852,-0.0774327380763095,-0.0733722158467793,-0.069733947955299,-0.0665685281206814,-0.0638913932595945,-0.0616811038154137,-0.0598875451289203,-0.0584446226950906,-0.0572822016577289,-0.0563345196333811,-0.0555446749214675,-0.0548660789447416,-0.0542620583979967,-0.0537045700651736,-0.0531726412897397,-0.0526508614061963,-0.0521280662310765,-0.0515962577841587,-0.0510497528124419,-0.0504845327931005,-0.0498977612219441,-0.0492874340471968,-0.0486521324528002,-0.0479908518896245,-0.0473028862107011,-0.0465877503874685,-0.045845129272755,-0.0450748431338084,-0.0442768232260948,-0.043451092601825,-0.0425977487593176,-0.0417169457564808,-0.0408088741395469,-0.039873737565829,-0.038911725397838,-0.0379229808699678,-0.0369075647180147,-0.0358654144439974,-0.0347962996823074,-0.0336997744484104,-0.0325751273916296,-0.0314213315364766,-0.030236995374512,-0.0290203175474982,-0.0277690477243107,-0.0264804565956603,-0.0251513181650193,-0.0237779076708207,-0.0223560185016532,-0.0208810013300888,-0.0193478283610629,-0.0177511850407629,-0.0160855907823264,-0.0143455492260516,-0.0125257272684348,-0.0106211605866786,-0.0086274816929391,-0.00654116473607878,-0.00435977941069698,-0.00208224453806431,0.000290929724636782,0.00275742337185586,0.00531292486454797,0.00795099958223362,0.0106630211354254,0.0134381767926451,0.0162635558471758,0.0191243263357652,0.0220040011703017,0.0248847895819064,0.0277480240241085,0.030574646650991,0.0333457335791739,0.0360430298340215,0.0386494636917874,0.0411496065905717,0.0435300443851797,0.0457796278621125,0.0478895753583636,0.0498534080845863,0.0516667091349728,0.0533267096946989,0.0548317198776425,0.0561804359413049,0.0573711691432701,0.0584010529365752,0.0592652932793185,0.0599565304337404,0.0604643789106986,0.0607752047389168,0.060872186062805,0.0607356848022489,0.0603439348884302,0.059674028044892,0.0587031531911813,0.0574100224689916,0.0557763977666234,0.0537886183451542,0.0514390242012448,0.0487271719747719,0.0456607506376208,0.0422561222352573,0.0385384372308197,0.0345413025635497,0.030306011013197,0.0258803703178762,0.0213171972577044,0.0166725634381738,0.0120038941512015,0.0073680284854469,0.00281934756002958,-0.00159193115005242,-0.00582121081938501,-0.00983066128722349,-0.0135900149521176,-0.0170769975059042,-0.0202774015124731,-0.0231848311608182,-0.0258001628431572,-0.0281307777188585,-0.0301896288095634,-0.0319942065808451,-0.0335654639440303,-0.0349267549927435,-0.0361028325820875,-0.0371189391335658,-0.0380000138309083,-0.038770028558639,-0.0394514552401522,-0.040064859155601,-0.0406286066454638,-0.0411586714174074,-0.0416685213897699,-0.0421690675934513,-0.0426686564261164,-0.0431730910766412,-0.0436856671114698,-0.0442072129400557,-0.0447361281239527,-0.0452684159378794,-0.0457977096710375,-0.0463149669174153,-0.0468094752255663,-0.0472678996440344,-0.0476746565649537,-0.0480119841782051,-0.0482600474153255,-0.04839708725977,-0.0483996238746254,-0.0482427220531686,-0.047900326022683,-0.0473456686275744,-0.0465517573986912,-0.0454919370169426,-0.044140524261466,-0.0424735077856551,-0.0404693011093201,-0.0381095332036684,-0.0353798571565153,-0.0322707538383871,-0.0287783044589061,-0.0249049036216862,-0.020659883158441,-0.0160600168274234,-0.0111298770365033,-0.00590201718270373,-0.000416957008172341,0.00527704649714597,0.0111244537986236,0.0170631269917711,0.0230252393555368,0.0289383979263379,0.0347269585880706,0.040313505601248,0.0456204609607871,0.0505717839106975,0.0550947177155547,0.0591215396299802,0.062591270977683,0.0654513071848586,0.0676589320959645,0.0691826863217468,0.0700035651182539,0.0701160272248073,0.0695288033349776,0.0682655048385924,0.0663650560001725,0.0638820112242821,0.0608868693259802,0.0574665289248585,0.053724973299001,0.0497840314023112,0.0457835803188464,0.0418799578432451,0.0382410534066844,0.0350371213226166,0.0324280507627661,0.0305498156158231,0.0295031032923081,0.0293438523993998,0.0300696663819009,0.031593369288075,0.0337024686123033,0.036021920129118,0.0380157131650236,0.0390607058579172,0.0385931040681327,0.036278362569817,0.0321245807623192,0.026476949442925,0.0198914001062195,0.0129496212859895,0.00610192438284815,-0.000403073813907166,-0.00649721976681563,-0.0122183246229746,-0.0176312198522478,-0.0227763341170425,-0.0276528229610142,-0.0322262953059825,-0.0364466534917028,-0.0402652990659225,-0.0436468288067528,-0.0466262735063215,-0.0491551458908689,-0.0512542344184248,-0.0529583433451076,-0.0543120982344576,-0.0553658253897253,-0.0561719006819102,-0.0567817842343494,-0.0572438225782668,-0.0576017992682263,-0.0578941455909374,-0.0581536828155427,-0.0584077526313907,-0.0586785974551272,-0.0589838707922909,-0.059337183660867,-0.0597486210688475,-0.0602251889106381,-0.0607711740685351,-0.0613884178851499,-0.0620765153604707,-0.0628329598770509,-0.0636532567303438,-0.0645310290875691,-0.0654581380175102,-0.0664248346129325,-0.0674199575334166,-0.068431183997614,-0.0694453367555977,-0.070448744249489,-0.0714276463917923,-0.0723686345239898,-0.0732591115246838,-0.0740877570531298,-0.0748449838221699,-0.0755233737857512,-0.0761180882595787,-0.0766272531491273,-0.0770523292864284,-0.0773984877384002,-0.0776750198653504,-0.0778958205093887,-0.0780799881960394,-0.0782525864631484,-0.0784456029155745,-0.0786991247651823,-0.0790627190938285,-0.079596961187698,-0.0803749946149411,-0.0814839338186341,-0.0830258383396458,-0.0851179062741819,-0.0878914701804691,-0.0914893660822851,-0.0960613613968945,-0.101757733242832,-0.108722090084676,-0.117086557632377,-0.126975747430475,-0.138529629969978,-0.151956058922717,-0.167614232949193,-0.186102979704584,-0.208282881770083,-0.235120910809194,-0.26725758234712,-0.304307320712651,-0.344105708835473,-0.382305063063753,-0.412714969829565,-0.428473308797953,-0.423620444204905,-0.394277415848207,-0.338774481155228,-0.256814168858637,-0.148637454958999,-0.0153866358446477,0.139107423273353,0.306534844493847,0.474505828329733,0.629973594683296,0.763814570656476,0.873292627303969,0.96079049398788,1.03048796002732,1.08624246456522,1.1321392817899,1.17384305923486,1.2173389181959,1.26363472083401,1.30222749029287,1.30915756332376,1.25282121588099,1.11036589358712,0.881927203647839,0.594545222842703,0.292384055383784,0.0194359319106746,-0.194955315911854,-0.341045116734948,-0.424607277728945,-0.459025618278244,-0.458631395602611,-0.435390627587267,-0.398353655898324,-0.354319756738604,-0.308548171374612,-0.265086579075114,-0.226787691670558,-0.195245827647938,-0.1708391262218,-0.152947525879599,-0.140311565540856,-0.131436752639495,-0.124940104544486,-0.119768582550807,-0.115270987820742,-0.111151325422173,-0.107356728841461,-0.103953635408646,-0.101029427683911,-0.0986347935616586,-0.096764150448096,-0.0953619973432845,-0.0943415135145971,-0.093604981014787,-0.0930601404351482,-0.0926297526680284,-0.0922522613662868,-0.0918703191183834,-0.0914037258110677,-0.0907072651709235,-0.089525127841887,-0.0874748348710643,-0.0841175300655808,-0.0791625143753721,-0.0727642217443529,-0.0657223696123913,-0.0593400525010156,-0.0548832422487202,-0.0529401875925376,-0.0531676856125514,-0.0546794781440263,-0.0568292528528965,-0.0597918722702749,-0.0644301651858304,-0.0713979305599201,-0.0800173712777665,-0.0878047568900199,-0.091194138431025,-0.0870544845446155,-0.0738389462730001,-0.0515470300263515,-0.0208587478658648,0.0174675279142528,0.0622805669604678,0.111164703874776,0.159983238403579,0.203613936453506,0.237697270819593,0.260031227343992,0.270190025397583,0.267789545761823,0.251323497851445,0.219996392565631,0.175542192990075,0.122642036498962,0.067435468535021,0.0156276930773646,-0.0286505733444901,-0.0631538196910473,-0.0873690236214732,-0.102150110220445,-0.109237522809307,-0.110737357105877,-0.108659507209567,-0.104608735076629,-0.0996718173444134,-0.0944742120527263,-0.0893286411167529,-0.0843893188086602,-0.0797556110584614,-0.0755130254857985,-0.0717315800359851,-0.0684505174329877,-0.0656694100276687,-0.0633515759813491,-0.0614360105829873,-0.0598512961280751,-0.0585268042371943,-0.0573995242497631,-0.0564169817068578,-0.0555375311949231,-0.0547292561487751,-0.0539683310832555,-0.0532373292619913,-0.0525237020024693,-0.051818509647872,-0.0511154085367034,-0.0504098624937604,-0.0496985951271541,-0.0489791465468073,-0.0482495705906113,-0.0475082226121399,-0.0467536128659184,-0.0459843059682045,-0.0451988516596701,-0.0443957359953096,-0.0435733451417528,-0.0427299362671683,-0.0418636116968963,-0.0409722937182187,-0.040053698278097,-0.0391053064363099,-0.0381243328993211,-0.0371076913329435,-0.0360519564822583,-0.0349533234485149,-0.0338075648063003,-0.0326099866018484,-0.0313553846585347,-0.0300380030246398,-0.0286514968209288,-0.0271889021646461,-0.0256426162392124,-0.0240043909167196,-0.022265343589831,-0.0204159889938922,-0.0184462957599036,-0.016345771195758,-0.0141035773110514,-0.0117086803504069,-0.00915003506212113,-0.00641680359740537,-0.00349860732268044,-0.000385807966801044,0.00293018752533084,0.00645660621717435,0.0101989824172999,0.0141608368695981,0.0183433755425032,0.0227452228898789,0.0273622050246133,0.0321871979804566,0.0372100549845645,0.0424176243084065,0.0477938657528322,0.0533200691770936,0.0589751728202536,0.0647361727144205,0.0705786075956547,0.0764770968349031,0.082405902588635,0.0883394822240255,0.0942529937460202,0.10012271604807,0.105926347827659,0.111643154281459,0.117253939310386,0.122740832710445,0.128086896154448,0.133275567795735,0.138289981852143,0.143112215123931,0.147722525505074,0.152098656623521,0.156215286436596,0.160043694908471,0.16355171630777,0.166704025304657,0.16946278371616,0.171788647910865,0.173642107582857,0.1749850972989,0.175782795563601,0.176005504713865,0.175630490980028,0.174643659171493,0.173040941497158,0.170829294936013,0.168027225313615,0.164664786941728,0.160783041789133,0.156432998695456,0.15167408801925,0.146572257420161,0.141197797786248,0.135623022913936,0.129919931567498,0.124157976028914,0.118402048092004,0.112710773266026,0.107135178851604,0.10171777391856,0.0964920514457107,0.0914823971524305,0.0867043676309308,0.0821652835176746,0.0778650722782971,0.0737972898065968,0.0699502500351128,0.0663081963114616,0.0628524563436847,0.0595625328765039,0.0564170937597208,0.0533948366612557,0.0504752145066144,0.0476390171760159,0.0448688126871782,0.0421492568904247,0.0394672846482457,0.036812197573499,0.0341756653493721,0.031551654835591,0.028936303748842,0.0263277516765872,0.0237259406251089,0.0211323954691185,0.0185499930934787,0.0159830585094709,0.0134361411659694,0.0109147803878298,0.0084249605248544,0.0059729114480771,0.00356492625020556,0.00120719808995315,-0.00109432248383378,-0.00333404896017516,-0.00550685881214506,-0.00760817222410118,-0.00963401031478733,-0.0115810339692546,-0.0134465647281293,-0.015228589449009,-0.0169257506477739,-0.0185373245467467,-0.02006318890465,-0.0215037826858939,-0.0228600595519494,-0.0241334370351635,-0.0253257430959785,-0.0264391615789336,-0.0274761778814497,-0.0284395259416661,-0.0293321374457361,-0.0301570939577208,-0.0309175824917595,-0.0316168548802341,-0.0322581894527512,-0.0328448635640618,-0.0333801200408532,-0.0338671443569351,-0.0343090438971597,-0.0347088307863614,-0.0350694080292399,-0.0353935586862337,-0.0356839378002072,-0.0359430667871791,-0.0361733300095146,-0.0363769732603201,-0.0365561039018054,-0.0367126924168864,-0.0368485751513235,-0.0369654580424076,-0.0370649211490301,-0.0371484238164199,-0.0372173103265969,-0.0372728159024287,-0.0373160729489804,-0.0373481174305134,-0.0373698952950282,-0.0373822688706522,-0.0373860231694915,-0.0373818720448527,-0.0373704641570503,-0.0373523887114172,-0.0373281809396895,-0.0372983273027064,-0.0372632703984068,-0.0372234135644676,-0.0371791251696685,-0.037130742592222,-0.0370785758869218,-0.037022911146077,-0.0369640135618407,-0.0369021301997619,-0.0368374924951989,-0.0367703184856857,-0.0367008147934569,-0.0366291783731442,-0.0365555980401965,-0.0364802557958674,-0.036403327964686,-0.0363249861602185,-0.0362453980946507,-0.036164732758055,-0.0360831474448929,-0.0360008017116176,-0.0359178531842229,-0.0358867165395461,-0.0358553104075985,-0.0358238222734991,-0.0357924382519534,-0.0357613430854861,-0.0357307201079232,-0.0357007511813872,-0.035671616614478,-0.0356434950687835,-0.0356165634604144,-0.0355909968628738,-0.0355669684172801,-0.0355446492557398,-0.0355242084435258,-0.0355058129456501,-0.035489627623405,-0.0354758152664938,-0.0354645366664279,-0.0354559507369417,-0.0354502146872111,-0.0354474842536283,-0.0354479139957384,-0.0354516576616219,-0.0354588686274435,-0.0354697004150008,-0.035484307289794,-0.0355028449402476,-0.03552547123605,-0.0355523470597886,-0.0355836372005745,-0.0356195112901215,-0.0356601447488836,-0.0357057196889091,-0.0357564256849825,-0.0358124602659629,-0.0358740288769399,-0.035941343893433,-0.036014621992945,-0.0360940787558173,-0.0361799187172725,-0.036272318171497,-0.0363713968148809,-0.0364771728657997,-0.0365894948118249,-0.0367079418264647,-0.036831684853455,-0.0369593023376642,-0.0370885497120458,-0.0372160910461073,-0.0373372151764608,-0.0374455764719973,-0.0375330196912674,-0.037589564652184,-0.0376036333028659,-0.0375625921402233,-0.0374536508637257,-0.0372651015920508,-0.0369878062062281,-0.0366167545791016,-0.0361524430069951,-0.0356017833049413,-0.0349782698463356,-0.0343012160084912,-0.0335940190090581,-0.0328816004258069,-0.0321873602104169,-0.0315301283617568,-0.0309216586323782,-0.03036515780646,-0.0298551834213744,-0.0293790016029864,-0.0289192260154011,-0.0284573186035406,-0.0279773755605814,-0.0274695797145416,-0.02693277701496,-0.0263758063419755,-0.0258174356589558,-0.0252849842164898,-0.0248118968488266,-0.0244346544582654,-0.0241894456011862,-0.0241089958128966,-0.024219873458753,-0.0245404872613522,-0.0250798830417389,-0.0258373515415942,-0.0268027842151242,-0.0279576620563871,-0.0292765320698569,-0.0307288130742913,-0.0322807730108415,-0.0338975302889139,-0.0355449492881647,-0.0371913229260976,-0.0388087614624936,-0.0403742347040129,-0.0418702426503493,-0.0432851155259085,-0.0446129663949012,-0.0458533369085465,-0.0470105885204723,-0.0480930977346401,-0.0491123152397282,-0.0500817462210187,-0.0510159040603703,-0.0519292833819692,-0.0528353921142967,-0.0537458766865899,-0.0546697699781858,-0.0556128880585598,-0.0565773985937313,-0.0575615803275318,-0.0585597885106828,-0.0595626349335392,-0.060557383023304,-0.0615285484306778,-0.0624586842841992,-0.0633293190336959,-0.0641220058056473,-0.0648194407273177,-0.0654066250202014,-0.0658720894808262,-0.066209206398883,-0.0664172916418548,-0.0665009935030427,-0.0664641614926311,-0.0662922832247636,-0.0659186246574031,-0.0651767000285059,-0.0637592005322294,-0.0612320810493718,-0.0571723002922753,-0.0514533630459933,-0.0445580505034905,-0.0376472874695632,-0.0321714108222591,-0.0291570912190974,-0.0286705465851269,-0.0299301221259089,-0.0320490985605227,-0.0348473965235677,-0.039046215630644,-0.0455513449917745,-0.0542044167612139,-0.0629321301753379,-0.0681353889523906,-0.0662188753418644,-0.0550861637764826,-0.0344330738829096,-0.0049082804188355,0.0326942334105417,0.0772758837788675,0.126512565678025,0.176225292073931,0.221015878641323,0.256125203104362,0.279064779446629,0.289331120260574,0.286527118242223,0.269405587556425,0.237155074215981,0.191521689669114,0.137239417970467,0.0805353402726305,0.0272139151200239,-0.018505744252673,-0.0543128206943208,-0.0796554563031053,-0.0953744410700153,-0.103219878531526,-0.105325141313422,-0.103737579770489,-0.100101133303264,-0.0955361524668192,-0.090691870405951,-0.085894658857848,-0.0813049044069016,-0.077024371222528,-0.0731401399496593,-0.0697243215090288,-0.0668187242851108,-0.0644252837696237,-0.0625088815627775,-0.0610090821296778,-0.0598542184673904,-0.0589729469034091,-0.0583014244495913,-0.0577864792093969,-0.057386042642045,-0.0570681006127549,-0.0568090510787692,-0.0565919767732018,-0.0564050745442584,-0.0562403292071002,-0.0560924420992622,-0.0559579896053493,-0.0558347738583268,-0.0557213255426537,-0.0556165216333672,-0.0555192861193104,-0.0554283477066179,-0.0553420343149173,-0.0552580894244185,-0.0551734998386617,-0.0550843281919125,-0.0549855466381302,-0.0548708707321647,-0.0547325946765495,-0.0545614309628595,-0.0543463590596888,-0.0540744892322134,-0.0537309488323606,-0.053298799457949,-0.0527589942058057,-0.0520903847834865,-0.0512697884323287,-0.0502721243829756,-0.0490706288479276,-0.0476371562985146,-0.0459425729366755,-0.0439572458384795,-0.0416516282281422,-0.0389969377829886,-0.0359659208518993,-0.0325336911098438,-0.0286786266226868,-0.0243833047454271,-0.0196354499355164,-0.0144288656606717,-0.00876431835437268,-0.0026503390534155,0.00389609284681677,0.0108490191818224,0.0181731598768755,0.0258237879479731,0.0337468489391889,0.0418793450479528,0.0501499968216099,0.0584801868325097,0.0667851804470616,0.0749756090556619,0.0829591913371702,0.0906426587375645,0.0979338427931873,0.104743874631788,0.110989441258724,0.116595039260947,0.121495164342515,0.12563637449713,0.128979165503359,0.131499600154782,0.133190638910884,0.134063133619597,0.134146474508848,0.133488930303075,0.132157787958203,0.130239448596151,0.127839589627503,0.12508324691266,0.122114144622249,0.11909195520621,0.116185891577277,0.113563775464628,0.111377690838471,0.109749441290847,0.108758901066848,0.108434136147859,0.108735787688407,0.109526672418798,0.110528480357749,0.111289470898447,0.111204050588554,0.109614883579552,0.105984180732814,0.100067152801905,0.0919996148624009,0.0822480668280777,0.0714448074551489,0.0601914172978283,0.0489203926769397,0.0378588557754928,0.0270782787629098,0.0165793510031381,0.00636376099579512,-0.00353009249625852,-0.0130251300439048,-0.0220225390074876,-0.0304229516168783,-0.0381432177981616,-0.0451261045472406,-0.0513436827022592,-0.0567962819722148,-0.0615088017683103,-0.0655257154532478,-0.068905683673527,-0.0717163809124962,-0.0740299137209158,-0.0759190369139393,-0.0774542396840232,-0.0787016730007139,-0.0797218218548996,-0.0805687883857301,-0.0812900398256587,-0.081926482050256,-0.08251273852527,-0.0830775395058017,-0.0836441526801263,-0.0842308109778626,-0.0848511126944039,-0.0855143876600277,-0.0862260309607149,-0.0869878156119829,-0.0877981982648791,-0.0886526331545299,-0.0895439082720804,-0.0904621804744719,-0.0913963875501026,-0.0923336984787799,-0.0932603414140253,-0.0941621300040939,-0.0950250117981687,-0.0958356249644371,-0.0965818485507106,-0.0972533325985694,-0.0978419978537775,-0.0983425007131739,-0.0987526673113519,-0.0990739109050019,-0.0993116582432326,-0.0994758222880472,-0.0995813688521006,-0.0996490312866729,-0.0997062275549804,-0.0997882246402285,-0.0999395727396529,-0.100215792650461,-0.100685241456097,-0.101431003030524,-0.102552552885955,-0.104166838071349,-0.106408306349858,-0.109427342884133,-0.113386585104274,-0.118454810883225,-0.12479878207787,-0.132575001577501,-0.141926287371247,-0.152992283659758,-0.16594639120455,-0.181068191658422,-0.198840928224808,-0.220021855606802,-0.245580631770993,-0.276378868519827,-0.312533192260311,-0.352593590117783,-0.392907416239789,-0.427644534872542,-0.449746970694793,-0.4525450603119,-0.431257211463603,-0.383521968463471,-0.308744738900106,-0.207064468927352,-0.0793045712858187,0.0714329185825547,0.237644661087441,0.407168072584842,0.566237054031548,0.704403459096351,0.817782781988345,0.908306855650927,0.980280118908175,1.03779069100901,1.08500688050719,1.12768307370549,1.17212876032124,1.21977361779148,1.26011877777489,1.26841993572284,1.2102265300999,1.06152869698952,0.824591076391735,0.531311888161472,0.230518352642254,-0.0322326786851493,-0.229743385978148,-0.356371494801557,-0.421595603872877,-0.440827102321731,-0.428863165680078,-0.39735989693677,-0.354944359335522,-0.308114065712451,-0.261870398564656,-0.219890895672713,-0.184521206307287,-0.156598663491867,-0.135784277059023,-0.12087976257408,-0.110293801852171,-0.102473465003962,-0.0961983727824206,-0.0906984311992265,-0.0856194444596934,-0.0808992529190716,-0.0766224702424679,-0.0729027314386119,-0.0698132735007911,-0.0673632274355537,-0.0655046119566341,-0.0641531252244761,-0.0632101663990243,-0.062579553610361,-0.0621772693227542,-0.0619353094812707,-0.0618016425293186,-0.0617381437584522,-0.0617178225824218,-0.0617221016073118,-0.0617384942053006,-0.0617587779313927,-0.061777634915893,-0.0617916803925459,-0.0617987910460022,-0.0617976536694184,-0.0617874696510293,-0.0617677662290648,-0.0617382788405916,-0.0616988795226506,-0.0616495342724956,-0.0615902779193713,-0.0615211988577058,-0.0614424283543823,-0.061354130398104,-0.0612564884433449,-0.0611496850844938,-0.0610338698260214,-0.0609091088852294,-0.0607753096941662,-0.0606321119815611,-0.0604787377978886,-0.0603137956197363,-0.0601350398500317,-0.0599390975131157,-0.0597211889108238,-0.059474887333159,-0.0591919816443919,-0.0588625196997284,-0.0584751135027862,-0.0580175719072707,-0.0574778884636083,-0.0568455501469062,-0.0561130533980202,-0.0552774311623999,-0.0543415288893772,-0.0533147416459202,-0.0522129575863664,-0.0510575530041916,-0.0498734425773039,-0.0486863786478825,-0.0475198747458449,-0.0463922554412708,-0.0453143688293388,-0.0442884207001574,-0.0433082086521094,-0.0423607847315362,-0.0414293100638372,-0.040496642831505,-0.0395490699087466,-0.0385795778675347,-0.0375901581623414,-0.0365928257741873,-0.035609255919724,-0.0346691614977864,-0.0338077049781141,-0.0330623388976785,-0.0324694940734032,-0.0320614949198335,-0.0318639974580746,-0.0318941410950284,-0.0321595005027519,-0.032657833177659,-0.0333775487675796,-0.0342987794550934,-0.0353949042777608,-0.0366343688895076,-0.0379826479793744,-0.0394042157831629,-0.0408643793492959,-0.0423308906050913,-0.0437752573939113,-0.0451737062579763,-0.0465077770020586,-0.0477645540938199,-0.0489365611517933,-0.0500213609993118,-0.0510209144788016,-0.051940756532009,-0.052789048648995,-0.0535755637885586,-0.0543106545994895,-0.0550042495260824,-0.0556649152334718,-0.0562990184325318,-0.0569100158676874,-0.0574978977684907,-0.0580588069286112,-0.0585848520403464,-0.059064129240861,-0.0594809594494639,-0.0598163407512422,-0.0600486050022088,-0.0601542566710258,-0.0601089609461498,-0.0598886397365116,-0.0594706340504197,-0.0588349109633948,-0.057965337942757,-0.0568510398391499,-0.055487479776023,-0.0538756134603689,-0.0520151373056195,-0.0498859236130026,-0.0474131865522058,-0.0444199600512465,-0.0405886126302444,-0.0354816840342371,-0.0286892689303665,-0.02011961765952,-0.0103018028769923,-0.000428361249806802,0.00805818426476734,0.0141769599312167,0.0179125528429743,0.0200625950682015,0.0214815151693043,0.0222930858219834,0.0217391190966062,0.0189259305899476,0.0140642332423058,0.00927384034599006,0.00814624540941561,0.0142083653530833,0.0294685102379946,0.0541693755850464,0.0876362999362721,0.129060012742958,0.177315340951481,0.230044529877111,0.283050314417481,0.33094678270088,0.369005910569801,0.394759042052696,0.407697509309643,0.407411590825254,0.392871437905771,0.363251222819833,0.320117244458357,0.267902705838992,0.212571445473231,0.159808537220253,0.113862459319112,0.0771808664395446,0.0505146020793096,0.0332386363183091,0.0237891531551585,0.020152476849875,0.0203195565493053,0.0226160436720356,0.0258552251592142,0.029322090053527,0.0326495257779689,0.0356668295769245,0.0382826463067674,0.0404263393009043,0.0420375865277552,0.0430785074480113,0.0435457715773883,0.043472211687408,0.042918400219216,0.0419597146835681,0.0406742325445473,0.0391342695959999,0.0374019583460684,0.0355279519262219,0.0335520364035732,0.0315046605314353,0.0294087482472378,0.0272814525241874,0.0251356965913101,0.0229814515755978,0.0208267507283714,0.0186784635185695,0.0165428618135237,0.0144260122413076,0.0123340272323393,0.0102732040606877,0.00825007748585418,0.00627140789967296,0.00434412348864072,0.00247523192991631,0.000671714547409826,-0.00105958638910799,-0.00271207850140988,-0.00427952130035198,-0.00575611394155166,-0.00713656477439646,-0.00841614003799082,-0.00959069026546322,-0.0106566540574407,-0.011611039876156,-0.0124513873933452,-0.0131757106989096,-0.0137824263459194,-0.0142702697745923,-0.014638204126843,-0.0148853258358443,-0.0150107716507969,-0.0150136319308729,-0.0148928751045515,-0.0146472881271402,-0.0142754375619602,-0.0137756555385254,-0.013146054282376,-0.0123845721461468,-0.0114890530849966,-0.0104573585779047,-0.00928751991352365,-0.00797791124012745,-0.00652745648881888,-0.00493585546778955,-0.00320382286837808,-0.00133333034091812,0.000672159849080971,0.00280748237872114,0.00506559124694431,0.00743743075408147,0.00991186825032591,0.0124757003135297,0.0151137415331218,0.0178090015951936,0.0205429519312085,0.023295877940014,0.0260473069428615,0.0287764959021368,0.0314629569341675,0.0340869932563307,0.03663021395705,0.0390759934010918,0.0414098406791232,0.0436196466821394,0.0456957813777006,0.0476310217283152,0.049420301214075,0.0510602846158148,0.0525487858169872,0.053884060876883,0.0550640223093629,0.0560854320654133,0.056943138877812,0.0576294292456664,0.0581335595652793,0.058441529310418,0.0585361417912525,0.0583973804917813,0.058003106463695,0.0573300573866728,0.056355103696224,0.0550566938198004,0.0534164012154258,0.0514204724951416,0.0490612699060837,0.0463384990640874,0.0432601510869812,0.0398430374885915,0.0361129128669181,0.0321041403015741,0.0278589128705883,0.0234260703023657,0.0188595768513525,0.0142167482384554,0.00955633027742228,0.00493653863469242,0.000413167802434899,-0.00396213170532352,-0.00814332455537302,-0.0120911473706594,-0.0157739117691733,-0.0191679387779935,-0.0222576330924523,-0.0250352262503689,-0.0275002343379575,-0.0296586875212688,-0.0315221951890685,-0.0331069119537617,-0.0344324667364933,-0.0355209105046025,-0.0363957289541181,-0.0370809556156087,-0.0376004095406173,-0.0379770707998092,-0.0382325972067668,-0.0383869774697874,-0.0384583096442989,-0.0384626893845367,-0.0384141899803767,-0.0383249154712039,-0.0382051075362035,-0.0380632909801041,-0.037906441248732,-0.0377401625521391,-0.0375688667113285,-0.0373959455163707,-0.0372239316327639,-0.0370543135623514,-0.0368886590293155,-0.0367277360308297,-0.0365719426984724,-0.0364213909273731,-0.0362759766975144,-0.0361354386060094,-0.0359994061263179,-0.0358674390217068,-0.035739059202693,-0.0356137761598602,-0.0354911069442504,-0.0353705915202733,-0.0352518041877672,-0.0351343616630889,-0.0350179283234605,-0.0349022190518979,-0.0347870000684894,-0.0346720880939099,-0.0345573481593075,-0.034442690350037,-0.0343280657466987,-0.0342134618038161,-0.0340988973831251,-0.033984417634286,-0.033870088890766,-0.0337559937228976,-0.0336422262641587,-0.0335288879011272,-0.0334160833929514,-0.0333039174631468,-0.0331924918855863,-0.0330819030681004,-0.03297224012141,-0.0328635833883213,-0.0327560033982286,-0.0326495602048866,-0.0325443030609388,-0.0324402703805507,-0.0323374899413707,-0.0322359792785865,-0.032135746226701,-0.0320367895684779,-0.0319390997549733,-0.0318426596653977,-0.0317474453804864,-0.0316534269478919,-0.0315605691226926,-0.0314688320703193,-0.0313781720229516,-0.0312885418836969,-0.0311998917756125,-0.0311121695348778,-0.0310253211492034,-0.0309392911439095,-0.0308540229190683,-0.0307694590417445,-0.0306855414977244,-0.0306022119072671,-0.0305194117093715,-0.0304370823188903,-0.0303551652605616,-0.0302736022837102,-0.030192335461021,-0.0301113072744182,-0.0300304606907247,-0.0299497392294288,-0.0298690870245599,-0.0297884488823793,-0.0297077703363285,-0.0296269977004398,-0.0295460781222133,-0.0294649596357919,-0.0293835912161176,-0.0293019228346377,-0.0292199055170311,-0.0291374914033562,-0.0290546338109689,-0.0289712873005289,-0.0288874077454048,-0.0288029524047948,-0.0287178800009121,-0.0286840956560708,-0.0286496403009726,-0.0286145104659825,-0.0285787044807815,-0.0285422225701052,-0.0285050669576724,-0.0284672419796267,-0.0284287542091048,-0.0283896125938854,-0.0283498286094712,-0.028309416430407,-0.0282683931231526,-0.028226778864403,-0.0281845971893875,-0.0281418752753709,-0.028098644266329,-0.0280549396455603,-0.0280108016638124,-0.0279662758313328,-0.0279214134830624,-0.0278762724269621,-0.0278309176861359,-0.0277854223459667,-0.0277398685178311,-0.0276943484310483,-0.027648965664456,-0.0276038365282631,-0.0275590916054465,-0.0275148774596659,-0.0274713585130538,-0.0274287190915344,-0.0273871656262403,-0.027346928984764,-0.0273082668812794,-0.0272714662729203,-0.0272368455795367,-0.0272047564466905,-0.0271755845802447,-0.0271497488775985,-0.027127697618919,-0.0271098998125314,-0.0270968288760614,-0.0270889346849455,-0.0270865987238987,-0.0270900658671811,-0.0270993456193308,-0.0271140761280504,-0.0271333467959151,-0.0271554808007448,-0.0271777880253137,-0.0271963119361536,-0.0272056098933282,-0.0271986227542637,-0.0271667023027975,-0.027099868482351,-0.0269873567943468,-0.0268184850632044,-0.02658381708409,-0.0262765329270475,-0.0258938427799035,-0.0254382197564018,-0.0249181963802373,-0.0243484866012194,-0.0237492693528602,-0.0231445970538724,-0.0225600542568843,-0.0220199560174495,-0.0215445041576537,-0.0211473772526655,-0.0208341950307153,-0.0206021689244302,-0.0204410496721841,-0.0203352506756844,-0.0202668115629387,-0.0202187155955261,-0.0201780174643851,-0.0201382826490293,-0.0201009709295313,-0.0200755823715865,-0.0200785836272549,-0.0201313075294661,-0.0202571422099345,-0.0204783848236789,-0.0208131317075953,-0.0212725248032754,-0.0218585923804017,-0.0225628296200686,-0.0233655768043567,-0.0242361794241442,-0.0251338595905295,-0.0260091915757662,-0.0268060535031963,-0.0274639186890376,-0.0279203506849928,-0.028113573163061,-0.027984997617049,-0.0274816070863524,-0.0265581115724516,-0.0251788093486783,-0.0233191067525231,-0.020966666145221,-0.018122166585508,-0.0147996738170856,-0.0110266252929004,-0.00684344249631623,-0.00230278748993246,0.0025315156289514,0.00758586988719476,0.0127785760693951,0.0180217496875263,0.0232234417719818,0.0282899126532521,0.0331279995165285,0.0376475112383055,0.041763579175437,0.0453988914087323,0.0484857413559553,0.050967830021083,0.0528017740641984,0.0539582881729398,0.0544230279490226,0.0541970960805058,0.0532972262654137,0.0517556604245245,0.0496197229893767,0.0469511137738037,0.0438251812548015,0.040331306083991,0.0365772762582261,0.0327023638179381,0.0289034446338587,0.0254733215895127,0.022838199747734,0.0215603333468255,0.0222500371916056,0.0253429917352171,0.0307885572565428,0.0378369580070422,0.0451608287617581,0.051356372005385,0.0555299478564142,0.0575168586804668,0.0575297469063651,0.0555155979241403,0.0507854455060342,0.0423322818554745,0.0297811002461409,0.0143953904918751,-0.000671908571645667,-0.011314461947539,-0.0140965590767418,-0.00738577629742277,0.00877582950415797,0.0336355258185079,0.0663939936201593,0.10590927992085,0.14981454956233,0.194039636865002,0.233525144324328,0.263954809695957,0.283142365894191,0.290651286165749,0.286067504220129,0.268170025197456,0.23610494895114,0.191334095793932,0.138112635063421,0.0822025831431859,0.0291152053444239,-0.0170224600686391,-0.0538301990714695,-0.0805791669149968,-0.0978838461863382,-0.107280241899483,-0.11075204171751,-0.110287532925849,-0.107554674717956,-0.103746888145306,-0.0995935613610389,-0.0954776676440252,-0.0915830106903174,-0.0880098737851379,-0.0848342844277407,-0.0821196687700372,-0.079905527845388,-0.0781954080702159,-0.0769549509212259,-0.0761200179526177,-0.0756096550359582,-0.0753386090360866,-0.0752264859909254,-0.0752030185327959,-0.0752102491499432,-0.0752027832049946,-0.0751470756985259,-0.0750203837218192,-0.0748097406888298,-0.0745111365245245,-0.0741290000149896,-0.0736760416622076,-0.073173500477644,-0.0726518281018008,-0.072151826390747,-0.0717262213867972,-0.0714416007509445,-0.0713805590221914,-0.071643784819271,-0.0723516912417799,-0.0736450489325386,-0.0756839592479392,-0.0786444622296488,-0.0827122396545934,-0.0880735235966216,-0.0949049721686959,-0.103367620306065,-0.113615256506073,-0.125832580606089,-0.140316105168318,-0.157588403167326,-0.178484171691602,-0.204077785015842,-0.235292284444181,-0.272123265501373,-0.312665429498531,-0.35243590207362,-0.384583984235376,-0.401226007626274,-0.395422091994548,-0.36271388264695,-0.301289461552181,-0.210899331332341,-0.0919144095283282,0.0538958985073436,0.220909732274094,0.397898248533942,0.569788241130791,0.722949207536576,0.850305889315229,0.95222845571084,1.03311497647389,1.09765089107141,1.15029305168121,1.19705024737969,1.245053452623,1.29681305381739,1.34180722975201,1.35314099627215,1.29832125856925,1.15333535363637,0.918596642423306,0.622952807988212,0.313066921302693,0.0349563783051415,-0.181195592317934,-0.325937092673275,-0.405924331802819,-0.435465046764372,-0.429582447642078,-0.40068903371903,-0.358129253616202,-0.308920815173493,-0.258488869356942,-0.210983009321046,-0.16927875898848,-0.134915140653591,-0.108158263962428,-0.0882540546931246,-0.073823099329112,-0.0632911665859193,-0.0552460214124001,-0.0486508565043243,-0.0429015147023153,-0.0377627758766339,-0.0332425424768781,-0.0294601755138126,-0.0265457379620312,-0.0245832343807365,-0.0235928106996211,-0.0235381407681916,-0.024344671844795,-0.0259184250108877,-0.0281601300097714,-0.030973472223774,-0.0342684708535601,-0.037961760853146,-0.0419754168310838,-0.0462354716948508,-0.050670776515822,-0.0552124610269301,-0.0597940092159306,-0.0643518341474182,-0.0688261828173034,-0.0731621946001823,-0.0773109548314926,-0.0812304154966752,-0.0848860903076367,-0.0882514670679113,-0.091308113291399,-0.094045479695201,-0.0964604292927384,-0.098556536793182,-0.100343213779767,-0.101834720027165,-0.103049121006492,-0.104007247049791,-0.10473170189109,-0.105245958505601,-0.105573569424299,-0.105737507976007,-0.105759646990284,-0.10566037295583,-0.105458326823877,-0.105170257719809,-0.104810972746348,-0.10439336483223,-0.103928499539874,-0.103425745459366,-0.102892931197964,-0.102336516915187,-0.101761769811024,-0.101172935627254,-0.100573400507346,-0.0999655120381651,-0.0993516942183224,-0.0987335822559271,-0.0981124520316412,-0.0974893064105501,-0.0968649477859446,-0.0962400382797666,-0.095615149066971,-0.0949908002336647,-0.0943674924606726,-0.0937457316757845,-0.093126047661827,-0.0925090074589778,-0.0918952242673728,-0.0912853624442232,-0.0906801390990801,-0.0900803227199633,-0.0894867292089024,-0.0889002156645402,-0.0883216722183316,-0.0877520122063827,-0.0871921609385007,-0.0866430433076026,-0.0861055704649115,-0.0855806257685878,-0.0850690501953058,-0.0845716273858813,-0.0840890684777143,-0.0836219968590362,-0.0831709329632933,-0.0827362792070179,-0.0823183108299834,-0.0819171694785398,-0.081532812549403,-0.0811650223900377,-0.0808133932194388,-0.0804773186433071,-0.0801559798340681,-0.0798483344515586,-0.0795531063872335,-0.0792687764229594,-0.0789935739043674,-0.0787254695378421,-0.0784621694290471,-0.0782011104889682,-0.0779394573403754,-0.0776741008629969,-0.0774016585192135,-0.0771184766034724,-0.076820634557627,-0.0765039514908906,-0.076163995036894,-0.0757960926714033,-0.0753953456025413,-0.0749566453308871,-0.074474692959653,-0.0739440213153752,-0.073359019917337,-0.0727139628094797,-0.0720030392420772,-0.0712203871622558,-0.0703601294428514,-0.0694164127485117,-0.0683834489067816,-0.0672555586206278,-0.0660272173279572,-0.0646931029836758,-0.0632481455112355,-0.0616875776439335,-0.0600069868519115,-0.0582023680292463,-0.0562701765970029,-0.0542073816627759,-0.052011518865027,-0.0496807425211677,-0.0472138766913037,-0.0446104647640559,-0.0418708171657858,-0.0389960567884925,-0.0359881617229759,-0.0328500048707162,-0.0295853899883828,-0.0261990836910554,-0.0227484258541955,-0.0191886424983424,-0.0155275649533017,-0.0117740639470813,-0.00793805256467764,-0.0040304811388688,-6.33231189491115e-05,0.00395044912210474,0.00799689965372192,0.0120611766874975,0.0161275737846964,0.0201796057115619,0.0242000999879118,0.0281713050070483,0.0320750153539243,0.0358927146058228,0.0396057354614554,0.0431954365114519,0.0466433943428978,0.0499316089770627,0.0530427198942616,0.0559602291318257,0.0586687271860707,0.0611541167482308,0.0634038287026715,0.0654070243598959,0.0671547776321411,0.068640230826527,0.0698587179627681,0.0708078500416716,0.0714875575057489,0.071900086237712,0.0720499448136799,0.0719438023273539,0.0715903378776938,0.0710000447049535,0.0701849939037502,0.0691585645754148,0.06793514915228,0.0665298443930794,0.0649581401797571,0.0632356197062346,0.0613776858720137,0.0593993295364488,0.0573149554833959,0.0551382810426364,0.0528823196675441,0.050559456581209,0.0481816150859307,0.0457604997939972,0.0433078871094376,0.0408359151848928,0.0383573082586157,0.0358854583021653,0.0334342859327344,0.0310178181296776,0.0286494561108543,0.0263409624574787,0.024101266203407,0.0219352558221688,0.0198427855538237,0.01781814143962,0.0158501844433129,0.0139233029371196,0.012019172840537,0.0101191626274231,0.0082070655495844,0.00627173029690529,0.00430912593662963,0.00232343430820678,0.000326908783440935,-0.00166155375998446,-0.00361895321550224,-0.00552146506469099,-0.00734795518442269,-0.00908319457394323,-0.0107203023578414,-0.0122620888007264,-0.0137211581430653,-0.0151188239660184,-0.0164830519308611,-0.0178457521868464,-0.0192397874781801,-0.0206960478923363,-0.022240883950798,-0.0238941053463078,-0.0256676613468926,-0.0275650348089173,-0.0295813133609102,-0.0317038518593124,-0.0339134090444986,-0.0361856256966693,-0.0384927081386448,-0.0408051865978948,-0.0430936303307594,-0.0453302187368474,-0.0474900885004366,-0.0495523979486954,-0.0515010839899915,-0.0533252833065024,-0.0550194451767149,-0.05658315383318,-0.0580207014808894,-0.0593404593483214,-0.0605540977302817,-0.0616757057991908,-0.0627208589738443,-0.0637056769391341,-0.0646459100550014,-0.0655560867205567,-0.0664487497979843,-0.0673338066168795,-0.0682180141944753,-0.069104618672525,-0.0699931649883132,-0.07087948885881,-0.0717558977942154,-0.0726115408627479,-0.0734329584420002,-0.0742047937414618,-0.0749106384422373,-0.0755339771830551,-0.0760591939599685,-0.0764726167284541,-0.0767636124013371,-0.0769257622769291,-0.0769579399397134,-0.0768642428411256,-0.0766499109326902,-0.0763083794919898,-0.0757946631175191,-0.0749850088176614,-0.0736349333469108,-0.0713697048322779,-0.0677642944572764,-0.0625566099729587,-0.0559434288535336,-0.0487637090030882,-0.0423316657655262,-0.0378838963973754,-0.035954756146268,-0.0361587334443164,-0.0376070867109697,-0.0396884832915524,-0.0426189295913461,-0.047271110806747,-0.0542612790571801,-0.0628469705015443,-0.0704985141798717,-0.0736582406804595,-0.0692508038961414,-0.0557906583847611,-0.0333089057205118,-0.00248786495447084,0.0359167391671929,0.0807446406878172,0.129565948203404,0.178244317807543,0.221683971216141,0.255566393883423,0.277719587166666,0.287726004355833,0.285202601381153,0.268651399416978,0.237276437813481,0.192786716286486,0.139819193552638,0.0844744585575598,0.0324398954784426,-0.0121497393284274,-0.0470290833672741,-0.0716561726191017,-0.0868537684699144,-0.0943359069326061,-0.0961924735971097,-0.0944292837493334,-0.090656951287584,-0.0859730031224434,-0.0810132163277727,-0.0760968711308342,-0.0713804899565521,-0.0669630674387028,-0.0629291385142816,-0.0593484922714042,-0.0562611315867537,-0.0536678807507735,-0.0515331418134684,-0.0497963986179782,-0.0483860286719895,-0.047230637587855,-0.0462661044720926,-0.045438700873278,-0.0447055272878838,-0.0440335000522455,-0.0433977598347547,-0.0427800009787079,-0.0421669594952071,-0.0415491467288467,-0.0409198395775612,-0.0402743038987288,-0.0396092149010943,-0.0389222360217658,-0.0382117205315164,-0.0374765050583048,-0.0367157698152146,-0.0359289457044856,-0.0351156532031044,-0.0342756618445021,-0.0334088621881538,-0.0325152444999816,-0.0315948800790486,-0.030647902396753,-0.0296744860904693,-0.0286748224824346,-0.0276490907634259,-0.0265974243558688,-0.0255198723012677,-0.0244163558364517,-0.0232866206544572,-0.0221301857016127,-0.0209462897471025,-0.0197338373723069,-0.0184913464552647,-0.0172168996550856,-0.0159081028104438,-0.0145620535282329,-0.013175323520969,-0.0117439584187066,-0.0102634987949468,-0.0087290259679604,-0.0071352357332531,-0.00547654251924907,-0.00374721551539229,-0.00194154709132198,-5.40523157538369e-05,0.00192030337735324,0.00398585328806456,0.00614596231011955,0.00840275264635528,0.0107568334646931,0.0132070473061037,0.0157502473512288,0.0183811203393215,0.0210920698381335,0.0238731735302431,0.0267122260886044,0.0295948759935634,0.0325048602992674,0.0354243359832059,0.0383343003063678,0.0412150858826543,0.0440469093248093,0.0468104459184821,0.0494873973669829,0.0520610158708388,0.0545165462628846,0.056841549133173,0.0590260722187222,0.0610626449517903,0.0629460818294521,0.0646730937405746,0.0662417217857881,0.0676506243629593,0.0688982640253681,0.0699820543603591,0.0708975373706817,0.071637667192529,0.0721922753759036,0.0725477857587732,0.0726872331347497,0.0725906200388736,0.072235621304603,0.0715986184111845,0.070656017325618,0.0693857770738487,0.0677690541763488,0.0657918526121594,0.0634465618726926,0.0607332679456458,0.0576607338805762,0.0542469671720731,0.0505193189395823,0.0465140924643206,0.0422756732668667,0.0378552265850352,0.0333090379637065,0.0286965962208531,0.0240785334733743,0.0195145431654835,0.0150613939932882,0.0107711459678831,0.00668965605079667,0.00285543682715723,-0.000701095130385303,-0.0039579718245934,-0.00690164345158639,-0.00952660309909368,-0.0118347214866497,-0.0138343579171007,-0.0155393189054339,-0.0169677356843185,-0.0181409267319164,-0.0190823026990083,-0.0198163598553864,-0.020367795672611,-0.0207607675542598,-0.021018303970608,-0.0211618670656013,-0.0212110576315659,-0.0211834473903876,-0.0210945197576377,-0.0209576986801861,-0.0207844440082739,-0.0205843957275247,-0.0203655480119966,-0.020134439380672,-0.0198963470795047,-0.0196554768408303,-0.0194151417899252,-0.0191775964988922,-0.0189451731420195,-0.0187194215981306,-0.0185015521204429,-0.0182925312789326,-0.0180931630189839,-0.0179041563980557,-0.0177261815620483,-0.0175599154135603,-0.0174060782492943,-0.017265462437124,-0.0171389539885931,-0.0170275476751033,-0.0169323561440892,-0.016854613318245,-0.0167956722060701,-0.0167569971134084,-0.0167401501203179,-0.0167467715729014,-0.0167785542340632,-0.016837210640555,-0.0169244331280989,-0.0170418459159474,-0.017190948593284,-0.0173730503308632,-0.0175891941626327,-0.0178400707557999,-0.0181259212269831,-0.0184464287802597,-0.0188005992531248,-0.0191866310701456,-0.0196017756301561,-0.020042189795699,-0.0205027829118463,-0.0209770616469209,-0.0214569769026135,-0.0219327780579873,-0.0223928808523157,-0.0228237562255536,-0.0232098483613235,-0.0235335309444721,-0.023775111174597,-0.0239128912850446,-0.0239232971201653,-0.0237810826437222,-0.0234596180213442,-0.0229312670910213,-0.0221678575840982,-0.021141244392851,-0.0198239625444858,-0.0181899624214424,-0.0162154152935515,-0.0138795725706091,-0.0111656575546619,-0.00806176411161655,-0.00456173285463096,-0.000665972407656782,0.00361780864147388,0.00827399414707996,0.0132786113855444,0.0185990723697701,0.024194133135304,0.0300140928852055,0.0360012476480834,0.0420906046367341,0.0482108541432891,0.054285586011968,0.0602347280075072,0.0659761743086783,0.0714275644767444,0.0765081671196893,0.0811408185471883,0.0852538652876444,0.0887830604934572,0.0916733677858316,0.0938806314669448,0.095373078494042,0.0961326244366682,0.0961559627604304,0.0954554258933682,0.0940596223015375,0.0919617505199939,0.0892763035096759,0.0860830842870437,0.0824799136379754,0.0785834534462801,0.074529955140563,0.0704749702065296,0.0665904067564863,0.0630572646533201,0.0600535827865901,0.0577394647370271,0.0562428507955821,0.0556482868856121,0.0559852513672829,0.0572065557409937,0.0591495566324906,0.0614895014186622,0.0637184501687924,0.0651933292938394,0.0652721279102919,0.0635022756826313,0.0597761550199488,0.0543686170501471,0.0478302837971746,0.0407904043436287,0.0337676494012006,0.0270687848176891,0.0207946104410298,0.0149161875563124,0.00936444949331249,0.00409213719174573,-0.000903638447537346,-0.00558820376056381,-0.00990877544941978,-0.0138137124726658,-0.0172656341843973,-0.0202476411100619,-0.0227642214741576,-0.0248388415588931,-0.0265098374718612,-0.0278257213777746,-0.0288406141791671,-0.0296102317945441,-0.0301886458452112,-0.0306258850434812,-0.0309663310322452,-0.0312477896813394,-0.0315010840879305,-0.0317500144396634,-0.0320115554549547,-0.0322962052848565,-0.0326084502694764,-0.0329473569321131,-0.0333073354277634,-0.0336791281628414,-0.0340510575781196,-0.0344105177099862,-0.034745622039249,-0.0350468402153299,-0.0353083898786808,-0.0355291206744653,-0.0357126553118108,-0.0358666457857252,-0.0360011537618589,-0.036126346737797,-0.0362498759542848,-0.0363744232361061,-0.036495934490896,-0.036602979181078,-0.0366774959237317,-0.0366969391658259,-0.036637583871105,-0.0364785323902133,-0.0362058476477019,-0.0358162340980996,-0.035319798813906,-0.0347416199103288,-0.0341220819102719,-0.033516157048248,-0.0329919750433417,-0.032629104410438,-0.0325169572320234,-0.0327536340646865,-0.0334453650547313,-0.0347065016768793,-0.0366597966646422,-0.0394365045245033,-0.0431756741500399,-0.0480219417804132,-0.0541212753125068,-0.0616146959217131,-0.0706314199028905,-0.0812856494322998,-0.0936855121624094,-0.107966737959144,-0.124362157108524,-0.143301485978076,-0.165496033796315,-0.191907368590824,-0.223465963725928,-0.26045917258643,-0.301688971501118,-0.343753398640961,-0.380951095800134,-0.40613836536204,-0.412351214645002,-0.394425688521317,-0.349695351409788,-0.277428169642032,-0.177732710292522,-0.0513525528216511,0.0988250213492529,0.26552988156936,0.43660063469984,0.597900615438325,0.738386825169953,0.853684025046662,0.945553059966775,1.0183873263265,1.07641815044435,1.12390333241255,1.16669799716236,1.21130373122069,1.25933598344173,1.30021373710746,1.30867903198366,1.25517386822454,1.11718716666601,0.893318633302975,0.607637513046217,0.301806343241871,0.0196406855923426,-0.207107256936963,-0.365203466867179,-0.457879438719408,-0.498006668345352,-0.501019266679927,-0.480284508989826,-0.445447300858035,-0.402960213779483,-0.35755245085927,-0.313467721976101,-0.274731270119044,-0.244354831908972,-0.223074458243214,-0.208659015202752,-0.196608574698993,-0.182041705280826,-0.161503684152447,-0.133492070609732,-0.0977655084894423,-0.0545923125600146,-0.00486818319024207,0.0490773551975493,0.102985131360042,0.151399467515678,0.189558693936113,0.215009060372787,0.22729977204828,0.226108863266271,0.210323711140503,0.179221251345226,0.134570332167352,0.081070622411666,0.0249081821515902,-0.0281228154465258,-0.0737765583950461,-0.109687736253338,-0.135234003909213,-0.151182498701537,-0.159220188546668,-0.161438987876178,-0.159870895615678,-0.15616666419321,-0.151465600115394,-0.14643692284369,-0.141420597691678,-0.136582485955644,-0.132024383867963,-0.12783199999826,-0.124077468872686,-0.120804661360459,-0.118018691520845,-0.115687383472035,-0.113752062286842,-0.112141350015091,-0.110782921097652,-0.109611084397211,-0.108570348906143,-0.107616149094651,-0.106713979568687,-0.105837855565583,-0.104968640277591,-0.104092505167657,-0.103199626646411,-0.102283138481776,-0.101338320629105,-0.10036198997185,-0.0993520549008968,-0.0983071977274373,-0.0972266535260899,-0.0961100594605279,-0.0949573540160913,-0.0937687103590389,-0.0925444920494861,-0.0912852225215672,-0.0899915621792791,-0.0886642887584525,-0.0873042779073002,-0.0859124818665266,-0.0844899047947228,-0.0830375737749029,-0.0815565049226745,-0.080047664347021,-0.0785119240275014,-0.0769500129912927,-0.0753624645145192,-0.0737495604411673,-0.0721112741088361,-0.070447213786398,-0.0687565689509301,-0.0670380621407606,-0.0652899094933587,-0.0635097933813589,-0.0616948507634969,-0.0598416809332299,-0.0579463762390828,-0.0560045790315641,-0.0540115675304666,-0.0519623724797299,-0.0498519253521609,-0.0476752374853631,-0.0454276078937711,-0.0431048565898183,-0.0407035743142227,-0.038221382942709,-0.0356571977558232,-0.0330114769929084,-0.0302864462498556,-0.0274862834329068,-0.0246172497687359,-0.0216877530155066,-0.018708330653089,-0.0156915435414322,-0.0126517743502241,-0.00960492992640603,-0.00656805252975107,-0.00355885127620546,-0.0005951718216375,0.002305571168339,0.00512696842903006,0.00785416258711584,0.010474329383414,0.0129770562024564,0.0153545833064591,0.0176018791454756,0.0197165302472693,0.0216984381947085,0.0235493304730922,0.0252721075995003,0.0268700647422163,0.0283460406149486,0.0297015583176542,0.03093603057766,0.0320461043154955,0.0330252157768593,0.0338634172904304,0.0345475202787643,0.0350615773473585,0.0353877005929659,0.0355071857036906,0.0354018843135915,0.035055742896347,0.0344564075909741,0.0335967827330477,0.0324764279074876,0.0311026846669539,0.0294914394351688,0.0276674524349422,0.0256642118722406,0.02352330560277,0.0212933362905044,0.0190284377584184,0.0167864771757457,0.0146270477556149,0.012609368274798,0.0107902083110669,0.00922195180810362,0.00795089739643591,0.00701587344450272,0.00644722116049584,0.00626617250513052,0.00648462348065268,0.00710527956975661,0.00812213034028805,0.00952119561837524,0.011281476706971,0.0133760428794514,0.0157731853168418,0.0184375769167405,0.0213313858744511,0.0244153024095449,0.0276494502929496,0.0309941668555731,0.0344106460651131,0.0378614484218769,0.0413108884803061,0.0447253156227305,0.0480733063720116,0.0513257870851403,0.0544561060805135,0.0574400695440184,0.0602559562561073,0.0628845202671739,0.0653089883716881,0.0675150558926163,0.0694908815069988,0.0712274126786653,0.0727173743487818,0.0739562435583826,0.0749418780097352,0.0756744582842846,0.0761564062752045,0.0763922765159531,0.0763886182914548,0.0761538078280379,0.0756978513783242,0.075032161556845,0.0741693107551427,0.0731227667926019,0.0719066170716963,0.0705352883458017,0.0690232697299551,0.0673848467612774,0.0656338541344757,0.0637834542049461,0.0618459474911389,0.0598326202594148,0.0577536328937095,0.055617951206015,0.0534333212074094,0.0512062862128059,0.0489422435752284,0.0466455369121211,0.0443195784630572,0.0419669952589702,0.0395897921263108,0.0371895242170325,0.0347674717510973,0.0323248099690764,0.0298627678894042,0.0273827703054308,0.0248865584887172,0.0223762862272164,0.0198545890572005,0.0173246257837018,0.0147900925675961,0.0122552109370293,0.00972469201475208,0.00720368001006326,0.00469767858512176,0.00221246406269709,-0.000246010400683638,-0.0026717155827303,-0.0050586480079174,-0.00740092924414602,-0.00969289956786886,-0.0119292034027068,-0.0141048645009528,-0.0162153494150455,-0.018256618370069,-0.0202251631758708,-0.0221180322906778,-0.023932843554464,-0.0256677854421589,-0.0273216079411435,-0.0288936043355073,-0.0303835852857594,-0.0317918466342062,-0.0331191323519058,-0.0343665939828902,-0.0355357478454284,-0.0366284311284731,-0.0376467578833711,-0.0385930757646548,-0.0394699242263006,-0.0402799947368856,-0.0410260934429477,-0.0417111065875988,-0.0423379688829852,-0.0429096332320494,-0.043429050363358,-0.0438991412715409,-0.0443227794463367,-0.0447027742168451,-0.0450418567646153,-0.0453426686281341,-0.0456077525093134,-0.0458919275551074,-0.046145163683607,-0.0463697060451263,-0.0465676832865687,-0.0467411069657226,-0.0468918721475428,-0.0470217590230343,-0.0471324354022362,-0.0472254599439047,-0.0473022859956272,-0.0473642659290884,-0.0474126558659492,-0.0474486207002164,-0.0474732393330249,-0.0474875100453719,-0.0474923559435358,-0.04748863042062,-0.0474771225858939,-0.0474585626213092,-0.0474336270317349,-0.0474029437620391,-0.0473670971601046,-0.0473266327701677,-0.0472820619454353,-0.047233866272722,-0.0471825018047503,-0.047128403097661,-0.047071987052009,-0.0470136565547635,-0.0469538039170741,-0.0468928140968405,-0.0468310676846977,-0.0467689436137116,-0.0467068215212811,-0.0466450836368539,-0.0465841159753993,-0.0465243084597864,-0.0464660533399553,-0.0464097408760435,-0.0463557506513152,-0.0463044360272218,-0.046256102669958,-0.0462109534737148,-0.0461690388348711,-0.0461301594304119,-0.0460937364700729,-0.0460586387781249,-0.046022965032692,-0.0459837877404247,-0.045936878114367,-0.0458764474833084,-0.0457949591766651,-0.0456830810828568,-0.0455298575697935,-0.0453231735468761,-0.0450505572530932,-0.0447003190770689,-0.0442629540699629,-0.0437326556740516,-0.0431087144599816,-0.0423965296818862,-0.0416079639353968,-0.0407608356573909,-0.0398774707448441,-0.0389824063272889,-0.0380995238926848,-0.037249043107605,-0.0364448902688661,-0.0356929377056765,-0.0349904864004867,-0.0343271536994886,-0.0336870739843889,-0.0330520775114742,-0.0324053341550989,-0.031734871605582,-0.031036413991008,-0.0303151227424851,-0.0295860216951951,-0.0288731075036192,-0.0282073408186831,-0.0276238513876685,-0.0271587563448915,-0.0268459875422251,-0.0267144657522117,-0.0267858684056842,-0.0270731348899688,-0.0275797567131318,-0.0282998199674836,-0.0292187090756556,-0.0303143435343152,-0.031558800297732,-0.0329201696703318,-0.0343644984909955,-0.0358576881468696,-0.0373672344289278,-0.038863719734518,-0.0403219940372909,-0.0417220077108179,-0.0430492849632697,-0.0442950496417668,-0.0454560341028095,-0.0465340158021259,-0.0475351349105673,-0.0484690498968636,-0.0493479874335395,-0.0501857393242183,-0.0509966536954726,-0.0517946616372693,-0.0525923747417831,-0.0534002841263074,-0.0542260876503047,-0.0550741688738194,-0.0559452482868432,-0.056836223757063,-0.0577402123187032,-0.0586467988809634,-0.059542489032987,-0.0604113531512625,-0.0612358382314471,-0.0619977136286756,-0.062679109929884,-0.0632636129908464,-0.0637373996360914,-0.0640904454148955,-0.0643177927400333,-0.0644203826211233,-0.0644035021669214,-0.0642685688911517,-0.0639924582814754,-0.0634908440151956,-0.0625711086267705,-0.0608996786921402,-0.0580366980198911,-0.0536014778388329,-0.0475695969476979,-0.040551173229307,-0.0337804431201742,-0.028658381779436,-0.0260522058149731,-0.0258610584226284,-0.0272433389969166,-0.0293908366370936,-0.0322618741899951,-0.0366475090338989,-0.0433731107942324,-0.0520843707705078,-0.0605369815853163,-0.0651242833701928,-0.0624173198870324,-0.0505328658560208,-0.0292922197069858,0.000638162694949953,0.0384775420287546,0.0831076381465757,0.132166533500883,0.181485695157177,0.225767425696349,0.260404094628007,0.283018523507394,0.293138921890845,0.290374261216724,0.27365072511091,0.242158551650975,0.197466385633578,0.143993668518354,0.0876808739953167,0.0341889098814789,-0.0122531492245094,-0.049210606464581,-0.075939688561443,-0.0930681560991241,-0.102160252069781,-0.105229983394593,-0.104288601882856,-0.101015827219858,-0.0966073133511159,-0.0917901426090227,-0.0869456648311136,-0.0822598967117073,-0.0778396789423591,-0.0737707075005223,-0.0701276055713637,-0.0669616158020489,-0.0642883618692744,-0.0620861124755692,-0.0603040946550152,-0.0588753570136249,-0.0577288648959714,-0.0567980213866392,-0.0560252120245168,-0.0553632743314213,-0.0547750933807199,-0.0542322989643496,-0.0537136852655998,-0.0532036824888241,-0.0526910243077268,-0.0521676537827802,-0.0516278611860532,-0.0510676260196383,-0.050484128568009,-0.0498753963889751,-0.0492400545435426,-0.0485771531257316,-0.0478860506793087,-0.0471663367716729,-0.0464177810370671,-0.0456402993018878,-0.0448339299856238,-0.0439988159191415,-0.0431351881522954,-0.0422433493528328,-0.0413236551353064,-0.0403764921924448,-0.0394022525041866,-0.0384013032263764,-0.0373739521522981,-0.0363204089240367,-0.0352407424654959,-0.0341348354251045,-0.0330023367572729,-0.0318426139349256,-0.0306547066627315,-0.0294372843384081,-0.0281886098690561,-0.0269065127674784,-0.0255883747022845,-0.0242311308244054,-0.0228312902085456,-0.02138497859785,-0.0198880062922078,-0.0183359634480538,-0.0167243442403258,-0.015048700265825,-0.0133048222454924,-0.0114889475315622,-0.00959798918393045,-0.00762978050945153,-0.00558332704169589,-0.00345905608250668,-0.00125905225620211,0.00101273381558876,0.00335031747377308,0.00574556660211286,0.008188156267934,0.0106656034204375,0.0131633912217928,0.0156651891560665,0.0181531706630763,0.0206084248008672,0.0230114525654154,0.0253427322973275,0.0275833324796815,0.0297155446494492,0.0317235046253199,0.0335937673254937,0.0353157996013081,0.0368823571464143,0.0382897159087427,0.0395377355848345,0.0406297425204737,0.0415722312160135,0.0423743969072817,0.0430475253893905,0.0436042792148627,0.0440579303805198,0.0444215973932475,0.0447075480991058,0.0449266280838985,0.045087867420331,0.0451983061544379,0.0452630618379312,0.0452856417990266,0.0452684803379922,0.0452136586038341,0.0451237446801287,0.0450026754531638,0.0448565919538619,0.0446945373783037,0.044528932578435,0.0443757574051286,0.0442543870345395,0.0441870587488988,0.0441979744214548,0.0443120746338021,0.0445535492547856,0.0449441738804737,0.0455015795977221,0.0462375735014067,0.0471566284170097,0.0482546523144578,0.0495181317012082,0.050923720312696,0.0524383166826766,0.0540196440210345,0.0556173157079567,0.0571743419644664,0.0586290098803077,0.0599170514644327,0.060974003594646,0.0617376598535294,0.0621505167402104,0.0621621245661261,0.0617312650961802,0.0608278924921424,0.0594347911395046,0.0575489252052678,0.0551824842997096,0.0523636717647281,0.0491373346952638,0.0455655760435484,0.041728464148995,0.0377247800241868,0.0336723549563267,0.0297070173375326,0.0259787854070678,0.022644221123739,0.0198551315215892,0.0177456584482656,0.0164207093557502,0.0159467852197987,0.0163417714263309,0.0175541654592711,0.0194301560678897,0.0216740536052027,0.0238309007821016,0.0253253096325556,0.0255723328596311,0.0241346828306903,0.020861504349573,0.0159387861268514,0.00982115212344958,0.00307625464939882,-0.00378438171124803,-0.0104167925850903,-0.0166676739641229,-0.0225262087892538,-0.0280476504546762,-0.0332883861929829,-0.0382716612689909,-0.0429825936456795,-0.0473805274809469,-0.0514163189046944,-0.0550468054985641,-0.0582436867335551,-0.0609971285677583,-0.0633155652461376,-0.065223212826379,-0.0667564586628572,-0.0679599215811339,-0.0688826954727177,-0.0695750876710044,-0.0700860151572273,-0.0704611090044912,-0.0707414939907345,-0.0709631539987825,-0.0711567626570159,-0.0713478490426981,-0.0715571751590143,-0.0718012197476954,-0.0720926865687172,-0.0724409802429153,-0.0728526159935343,-0.0733315492383574,-0.0738794261204639,-0.0744957666471175,-0.0751780985530346,-0.0759220629861986,-0.0767215133686793,-0.0775686270035679,-0.0784540457773795,-0.079367058136611,-0.0802958298047392,-0.0812276858044444,-0.082149441585613,-0.0830477767522925,-0.0839096413516632,-0.084722682252091,-0.0854756760939668,-0.0861589559039211,-0.0867648209083415,-0.0872879234518759,-0.087725633167467,-0.0880783864221489,-0.0883500381151194,-0.0885482423894435,-0.0886848976606906,-0.0887766981085035,-0.0888458365563917,-0.0889209002255398,-0.0890379886347207,-0.089242059278973,-0.0895884692634356,-0.0901446282082912,-0.0909916094477038,-0.0922254853543707,-0.0939580650559166,-0.0963166319390295,-0.0994422296282896,-0.103486080570269,-0.108603949339501,-0.114948894575541,-0.122664230051646,-0.131932816822288,-0.142831269410048,-0.155517633379641,-0.170241838335911,-0.187430368557508,-0.20775297402344,-0.232088609653463,-0.261285028132594,-0.295649351481131,-0.334244285605087,-0.374257950889418,-0.410838825619292,-0.437689170953999,-0.448346352342761,-0.437621816752085,-0.402450125870568,-0.34170373730283,-0.25529152946331,-0.143567683665381,-0.00802221058913327,0.146881130122691,0.31229865873859,0.475943952168387,0.625682315421418,0.753684076095531,0.858206854431672,0.941972437244271,1.00903495432646,1.06306879261597,1.10808674099395,1.14962842066868,1.1933323674079,1.23981696450435,1.27863298693077,1.28663007720531,1.23182370556798,1.09146818915647,0.86607010197797,0.58315200684585,0.28708219120067,0.0214871206321461,-0.1851460261246,-0.324031843799725,-0.401614055139641,-0.431507778674215,-0.427938408954092,-0.40262620038401,-0.364382321851496,-0.319821824310322,-0.274056120085006,-0.230986385460011,-0.193300938502898,-0.16241688049018,-0.138544660156936,-0.120932783978168,-0.108245708824638,-0.0989727352075236,-0.0917643361757825,-0.0856311086404583,-0.0799948068522735,-0.0746261263764013,-0.0695254007679575,-0.064799099081758,-0.0605660759893212,-0.0569051061913745,-0.0538384152566918,-0.0513381141905765,-0.049342310018975,-0.0477716749794229,-0.0465420664950153,-0.045572415923465,-0.0447889819553023,-0.0441275192795088,-0.0435345699063565,-0.0429684912754841,-0.0424003247438791,-0.041814311999564,-0.0412077864279999,-0.0405902402889454,-0.0399815199871408,-0.0394092639164683,-0.038905824406287,-0.0385049843341367,-0.0382387870842351,-0.0381347568204205,-0.0382137127066384,-0.0384882948675007,-0.0389622372235889,-0.0396303530325325,-0.0404791476051072,-0.041487939506734,-0.0426303543013095,-0.0438760503031743,-0.0451925407690461,-0.0465469889950108,-0.0479078700155753,-0.0492464135448808,-0.050537766073766,-0.0517618341959148,-0.0529037947552705,-0.0539542787882447,-0.054909254189528,-0.0557696456561836,-0.0565407393618194,-0.0572314241169789,-0.0578533210949594,-0.0584198514972087,-0.0589452869159658,-0.0594438217159343,-0.0599287014025477,-0.0604114362620953,-0.0609011257704364,-0.0614039162342085,-0.0619226114235295,-0.0624564529780467,-0.063001083491645,-0.0635486999010531,-0.0640883978703782,-0.0646066993750967,-0.0650882461375324,-0.0655166318891148,-0.0658753383427849,-0.0661487370935419,-0.0663231309808866,-0.0663878429060373,-0.0663363853819647,-0.0661675709739268,-0.0658856226824173,-0.065496575294805,-0.0649961839045447,-0.0643443196779308,-0.0634251501369129,-0.0620040390403365,-0.059713653655793,-0.0561259120093566,-0.0509575366537964,-0.0443675009625129,-0.0371574659861655,-0.0306304896907073,-0.0260517135755853,-0.0240091261312745,-0.0241605394591565,-0.0256214701902733,-0.0277467862426334,-0.030710785080781,-0.0353741145779553,-0.0423884967390523,-0.0510765283589696,-0.0589585595068274,-0.0624751267600201,-0.0585009116528967,-0.0454913462411424,-0.0234446075971508,0.00696247565894739,0.0449752597943397,0.0894475621312784,0.137972283768212,0.186426151817641,0.229703638520226,0.263460866850811,0.285506647415423,0.29542185195274,0.292829210629475,0.276559175283977,0.245818182482052,0.20213206177738,0.149818781254045,0.0946995305988945,0.0423397357941858,-0.00308513524182087,-0.0391524530231457,-0.0650969009590196,-0.0815021098172008,-0.0898784064440245,-0.0921885110427262,-0.090404030887899,-0.0861801645675778,-0.0807011760109543,-0.0746906319181435,-0.0685288007826439,-0.0623997281347881,-0.0564067555193563,-0.0506316724949435,-0.0451462445092064,-0.0400007168840872,-0.0352115439451354,-0.0307591173363323,-0.0265954911399332,-0.0226568785772315,-0.0188756504491117,-0.0151889444794919,-0.0115433740521061,-0.00789666180458273,-0.00421736607849419,-0.000483670313484567,0.00331813773503626,0.00719515978920113,0.011149204109412,0.0151778795210414,0.0192754709808253,0.0234336234949898,0.0276418688559333,0.0318880300785745,0.0361585353388877,0.0404386686357684,0.0447127794201982,0.0489644686738274,0.0531767646751791,0.0573322980711724,0.0614134828605767,0.0654027074174068,0.0692825376356292,0.0730359325632149,0.0766464714310825,0.0800985897110894,0.0833778207209497,0.0864710383183975,0.0893666953952057,0.0920550522096895,0.0945283881075861,0.0967811899020755,0.0988103101389565,0.100615088682021,0.102197431527454,0.103561841494983,0.104715396435984,0.105667671821246,0.106430605988525,0.107018307897701,0.10744680890724,0.107733761793351,0.107898091925427,0.10795960713268,0.107938574297212,0.107855272044919,0.107729530042726,0.107580266322145,0.107425034715591,0.107279594898503,0.107157517664304,0.107069837905846,0.107024767316487,0.107027478029124,0.107079967246465,0.107181011337604,0.107326215838169,0.107508165251117,0.107716673473434,0.107939132066928,0.108160949485011,0.108366069851017,0.108537555111573,0.108658209587714,0.108711221417768,0.108680791496475,0.108552717679874,0.108314900680151,0.107957738633969,0.107474380139375,0.106860810848004,0.106115756526934,0.10524039570862,0.104237887221453,0.103112731376446,0.101869997477778,0.100514463536744,0.0990497253971087,0.0974773407122052,0.0957960772495783,0.0940013339766446,0.0920847968001973,0.0900343786509477,0.0878344762960574,0.0854665548293057,0.0829100467119013,0.0801435273750561,0.0771461058279291,0.0738989485508561,0.0703868401234837,0.0665996760859505,0.0625337834449589,0.0581929723189981,0.0535892380330971,0.048743055370908,0.0436832338989959,0.0384463330696305,0.0330756657202784,0.0276199461587187,0.0221316620317037,0.0166652675301597,0.0112752946188418,0.00601450535232441,0.000932168374597319,-0.00392744535900899,-0.0085262812161627,-0.0128333878271743,-0.0168254498644039,-0.0204869673655674,-0.0238101033192553,-0.0267942386996558,-0.0294452871126718,-0.0317748292299327,-0.0337991302404451,-0.0355381020510316,-0.0370142666443805,-0.0382517687949826,-0.039275476281185,-0.0401101948376258,-0.0407800142883769,-0.0413077923449776,-0.0417147740011526,-0.0420203376496288,-0.0422418541253303,-0.0423946418072415,-0.0424919996904514,-0.0425452993086084,-0.0425641201074788,-0.0425564112614763,-0.0425286678711254,-0.0424861109435889,-0.0424328632163364,-0.0423721151745989,-0.0423059502770218,-0.0422364632433706,-0.0421648991352111,-0.042092086277749,-0.0420185261370629,-0.041944469383034,-0.0418699795937616,-0.0417949861019576,-0.0417193274282175,-0.0416427866291978,-0.0415651197412445,-0.0414860783443512,-0.0414054271225704,-0.0413229571641409,-0.041238500107916,-0.0411519213167733,-0.041063137242263,-0.0409721126782773,-0.0408788606449886,-0.040783440751126,-0.0406859563364948,-0.0405865506716438,-0.0404854024681119,-0.0403827209293929,-0.0402787405488829,-0.0401737158363447,-0.0400679161289214,-0.0399616206168295,-0.0398551136880807,-0.0397486806715083,-0.0396426040336199,-0.0395371600628828,-0.0394326160554234,-0.0393292279991102,-0.0392272387387751,-0.0391268765939877,-0.0390283543922698,-0.0389318688747797,-0.0388376004280706,-0.0387457130942452,-0.0386563548123593,-0.0385696578459361,-0.0384857393545794,-0.0384047020716116,-0.0383266350540985,-0.0382516144762995,-0.0381797044422828,-0.0381109577979792,-0.0380454169271958,-0.0379831145199591,-0.0379240743049617,-0.037868311740803,-0.0378158346631561,-0.0377666438869606,-0.0377207337642834,-0.037678092699633,-0.0376387036253227,-0.0376025444399923,-0.0375695884136734,-0.0375398045628706,-0.0375131579990693,-0.0374896102539112,-0.0374691195840382,-0.0374516412583173,-0.0374371278298488,-0.037425529394845,-0.0374167938401617,-0.0374108670809731,-0.0374076932898185,-0.0374072151180085,-0.0374093739101719,-0.0374141099125431,-0.0374213624754379,-0.0374310702502382,-0.0374431713811046,-0.0374576036915549,-0.0374743048659818,-0.0374932126261435,-0.0375142649026263,-0.0375374000012692,-0.0375625567645329,-0.0375896747278145,-0.037618694270727,-0.0377011065998178,-0.0377853437037869,-0.0378713818469938,-0.0379591986740153,-0.0380487733283372,-0.0381400865674656,-0.0382331208750977,-0.0383278605711645,-0.0384242919207668,-0.0385224032432582,-0.0386221850229948,-0.0387236300235697,-0.0388267334076724,-0.038931492865068,-0.0390379087515577,-0.0391459842421679,-0.0392557255021948,-0.0393671418800954,-0.0394802461265451,-0.0395950546442462,-0.0397115877732418,-0.0398298701165296,-0.0399499309106315,-0.0400718044454054,-0.0401955305367168,-0.0403211550545334,-0.0404487305074531,-0.0405783166824397,-0.0407099813353596,-0.0408438009232896,-0.0409798613626686,-0.0411182587866612,-0.0412591002578592,-0.0414025043638996,-0.0415486015756118,-0.0416975341667575,-0.0418494553608774,-0.0420045271546329,-0.042162915928715,-0.0423247844497686,-0.0424902781439187,-0.0426595025583626,-0.0428324877481699,-0.0430091340553998,-0.0431891326655653,-0.0433718539155653,-0.0435561972937335,-0.0437404002945142,-0.043921809655294,-0.0440966286098134,-0.0442596675266627,-0.0444041413603408,-0.0445215728655977,-0.0446018710434072,-0.0446336542142985,-0.0446048709317868,-0.0445037360041892,-0.0443199434889621,-0.0440460496428685,-0.0436788486925329,-0.0432205101466179,-0.0426792269794457,-0.0420691546076954,-0.0414095072594582,-0.0407228137966226,-0.0400324974333279,-0.0393600997704314,-0.0387225815889966,-0.0381301689003394,-0.0375851558799549,-0.0370819308345123,-0.0366082834628362,-0.0361478238311073,-0.0356831439584887,-0.0351992235378581,-0.0346865471092226,-0.0341434636302193,-0.0335774619102367,-0.0330052225919182,-0.0324514994643981,-0.0319470443383338,-0.0315258966062317,-0.0312224019444563,-0.0310683092691301,-0.0310902356941361,-0.0313077048297713,-0.0317318725489506,-0.0323649704027383,-0.0332004286592054,-0.0342235916748295,-0.0354129073407231,-0.0367414569232225,-0.038178688364276,-0.0396922219574608,-0.0412496098734227,-0.0428199484802247,-0.0443752633374135,-0.0458916097643171,-0.0473498555524199,-0.0487361352037856,-0.0500419855854291,-0.0512641898809475,-0.0524043693828265,-0.0534683706913531,-0.0544654994772691,-0.0554076517813331,-0.0563083908301048,-0.0571820126412912,-0.0580426383224109,-0.0589033657760581,-0.0597755090420017,-0.0606679498972279,-0.0615866234215646,-0.0625341565706913,-0.0635096757813395,-0.0645087956589035,-0.0655237953963607,-0.0665439825377569,-0.0675562351685013,-0.0685457041155233,-0.0694966472483096,-0.0703933602950527,-0.0712211668572911,-0.0719674434431156,-0.0726226911388941,-0.0731816832889566,-0.0736445106472617,-0.0740164752414204,-0.0743039677231284,-0.0745014782830385,-0.0745649410348346,-0.0743713490830823,-0.0736767452638391,-0.0721066212816857,-0.0692357056214514,-0.0648009168836557,-0.0589969396391139,-0.0526592549948198,-0.0470972043818968,-0.0435414003878168,-0.0425194455334518,-0.0436383314076175,-0.046000602598075,-0.0489842426769505,-0.0527920446186198,-0.0582810073346604,-0.0660498811615852,-0.0753377616266667,-0.0835959911520308,-0.0872468749308297,-0.0831929759150454,-0.0699239616399657,-0.0474438508416141,-0.0164067137245684,0.0224601453312983,0.0680246991187146,0.117885110448486,0.167932487275031,0.213096467901954,0.249079640997282,0.273724795775071,0.286622297471015,0.287390708313239,0.274674044357495,0.247660818502254,0.207942415960019,0.15996159365481,0.109638013604748,0.0625505091902867,0.0227995352814261,-0.0073328685108664,-0.0272619782273365,-0.0377663295962958,-0.040538983629852,-0.0376910629049229,-0.0312976107631026,-0.0230764355472157,-0.0142490414003356,-0.00556915778661572,0.00254744745132092,0.00987362076115417,0.016261510764601,0.0215927976926719,0.0257746318148545,0.0287544058382919,0.0305317718149672,0.0311591647200455,0.0307326067420277,0.0293787987598996,0.0272437340113138,0.0244853739377041,0.0212705321304752,0.0177746786757029,0.0141826213401625,0.0106876284721002,0.00748671187703318,0.00477101220189374,0.00271258494022139,0.0014510323268878,0.00108277374631219,0.00165073678809421,0.00312580866895799,0.00537160794679736,0.00809824334776207,0.0108345717034806,0.0129624450950367,0.0138382270963119,0.0129754504531755,0.0102097509541957,0.005757634105499,0.000131345590155905,-0.00604806084428225,-0.0122448560402344,-0.0181244250206329,-0.0235617177613977,-0.0285725827799891,-0.0332240082625851,-0.0375676323965041,-0.0416121736756977,-0.0453270327959503,-0.0486606363903794,-0.0515599308198365,-0.0539842479022819,-0.0559122603719538,-0.0573434229238075,-0.058295893077281,-0.0588026049561327,-0.0589066662761996,-0.0586568360710517,-0.0581035467605342,-0.0572957226015028,-0.0562784880087294,-0.0550917415361357,-0.0537694908820714,-0.0523397984323234,-0.0508251707298854,-0.0492432319082195,-0.0476075427357324,-0.0459284561454216,-0.0442139309978921,-0.0424702541814813,-0.0407026446171816,-0.0389157304394828,-0.0371139027781357,-0.0353015570250216,-0.0334832363643987,-0.0316636938125827,-0.0298478890440799,-0.0280409356455298,-0.0262480136795944,-0.0244742619007558,-0.0227246638261961,-0.0210039421892798,-0.0193164770647678,-0.0176662640656035,-0.0160569303404113,-0.0144918274931926,-0.0129742218373614,-0.0115076034241691,-0.0100961358978639,-0.00874526927049887,-0.00746253698201918,-0.00625855681074788,-0.00514825180774653,-0.00415230158682239,-0.00329882468044221,-0.00262527738140886,-0.00218053109661845,-0.00202705595719777,-0.00224309057807243,-0.00292461465329777,-0.00418686280213854,-0.00616502879811967,-0.00901371949716387,-0.0129046497583504,-0.0180220708471001,-0.0245555990402835,-0.0326906780605757,-0.042598270905416,-0.0544280651379039,-0.0683136578665453,-0.0844023330589065,-0.102920961325385,-0.124273840449588,-0.14912951496843,-0.178398127806063,-0.212965577023688,-0.253099145214128,-0.297615287447963,-0.343153525646101,-0.384054095694259,-0.413180799731182,-0.423522952351062,-0.40982581928023,-0.369323992516321,-0.301213180998593,-0.20555932281774,-0.0830572425385998,0.0635030737276652,0.226997828646664,0.395403099471244,0.554636479778613,0.693600200562317,0.80779882534071,0.8988757124216,0.971142123753487,1.02876611564526,1.07593236144333,1.11841295892755,1.1626504722269,1.21026455753553,1.25075447334414,1.25899672626296,1.2002651232445,1.0503582473797,0.811739707709047,0.516849886800297,0.215083503069472,-0.0477368401241101,-0.24453666107536,-0.370022452423171,-0.434015137584248,-0.452133645506713,-0.439250516936422,-0.407030893819512,-0.364098307185055,-0.316950589976481,-0.270584519188555,-0.22865505286547,-0.193410301560374,-0.165679837548288,-0.145062930841059,-0.130312747167836,-0.119811833370396,-0.112004704121861,-0.105686043408676,-0.100108873416381,-0.0949410812096485,-0.0901357788572208,-0.0857843534642514,-0.0820001871136683,-0.078852177702786,-0.0763439167911794,-0.0744226552681385,-0.0730009789429071,-0.0719788820314334,-0.0712600945614537,-0.0707613191598413,-0.0704156419029924,-0.0701721905722935,-0.0699938997081776,-0.0698546647143842,-0.0697366062538784,-0.0696277628906161,-0.0695202910805606,-0.069409133665116,-0.0692910733871872,-0.069164081509313,-0.0690268819646312,-0.0688786671839205,-0.0687189173913198,-0.0685472885577275,-0.0683635447612001,-0.0681675185782504,-0.0679590887549934,-0.0677381682825481,-0.0675046985869237,-0.0672586472191775,-0.067000007488176,-0.0667287991276888,-0.0664450694791308,-0.0661488948996777,-0.0658403822364625,-0.0655196702810745,-0.0651869311589377,-0.0648423716297442,-0.0644862342862824,-0.0641187986444273,-0.0637403821193478,-0.0633513408835503,-0.062952070601984,-0.0625430070384821,-0.0621246265265404,-0.0616974462959572,-0.0612620246452603,-0.060818960948172,-0.0603688954806561,-0.0599125090533788,-0.0594505224327288,-0.0589836955319062,-0.0585128263520367,-0.0580387496518185,-0.057562335322905,-0.0570844864470886,-0.0566061370104197,-0.0561282492487079,-0.0556518105984401,-0.0551778302270619,-0.0547073351168381,-0.0542413656771812,-0.0537809708614508,-0.0533272027658357,-0.0529329410104264,-0.0525474163482865,-0.0521716857716598,-0.0518067822569196,-0.0514537065230118,-0.0511134182033122,-0.0507868264364025,-0.0504747798879608,-0.0501780562233539,-0.0498973510586102,-0.0496332664262168,-0.0493862988015821,-0.0491568267459967,-0.0489450982324423,-0.0487512177315556,-0.0485751331463677,-0.0484166226959852,-0.0482752818600255,-0.0481505121624439,-0.0480415053569095,-0.047947232627605,-0.0478664334839126,-0.0477976050903176,-0.0477389925573465,-0.0476885803745541,-0.0476440851719564,-0.0476029499997084,-0.0475623403168775,-0.0475191418784052,-0.0474699607041404,-0.0474111253042264,-0.0473386913195665,-0.0472484487119463,-0.047135931601105,-0.0469964307879201,-0.0468250089112284,-0.0466165180407276,-0.0463656192803508,-0.0460668036049048,-0.0457144126275101,-0.0453026572444689,-0.0448256310915069,-0.0442773144829188,-0.0436515631016778,-0.0429420744304716,-0.0421423242447111,-0.0412454661607557,-0.0402441901865651,-0.0391305424507875,-0.037895718526899,-0.036529857045684,-0.035021877382205,-0.0333594222039397,-0.0315289778601094,-0.0295162469272877,-0.0273068315511672,-0.0248872492489329,-0.0222462444633535,-0.0193762854817558,-0.0162750603969726,-0.0129467262978397,-0.00940264349239693,-0.00566135823561532,-0.00174769012908565,0.00230907375788326,0.00647770092714892,0.0107279069670616,0.0150331570470769,0.0193728766794877,0.0237336392605703,0.0281090596406465,0.0324983501795721,0.0369037409284613,0.0413271757544184,0.0457668266116994,0.0502139934629059,0.0546508772941082,0.0590495514398763,0.0633722510023446,0.0675728952187797,0.0715995908059723,0.0753977594293947,0.078913496723467,0.0820967961175046,0.0849043406933904,0.0873016593722105,0.0892645405997217,0.0907796832266482,0.0918446325875472,0.0924670975560946,0.0926637730917932,0.0924588058673235,0.0918820416975367,0.0909671858755857,0.0897499935773477,0.0882665890208873,0.086551990553789,0.0846388957352493,0.0825567573004612,0.0803311591835951,0.0779834829376397,0.075530839999441,0.0729862348941452,0.0703589186820325,0.0676548902160803,0.0648775041789665,0.0620281482478154,0.0591069559106322,0.0561135254148162,0.0530476183702748,0.0499098133701045,0.0467020907642291,0.0434283249212637,0.0400946606792506,0.036709752038197,0.033284844217453,0.029833685467667,0.0263722625920369,0.0229183636474983,0.0194909819261426,0.0161095855413268,0.0127932835754975,0.00955991535725694,0.00642506241843458,0.00340094494951185,0.000495253066100175,-0.00228942932865099,-0.0049533553504497,-0.00748997437137906,-0.00986335196519037,-0.0119701616887041,-0.0135938696563308,-0.0143790367885222,-0.0138806161626701,-0.0117464168117751,-0.00801697695326939,-0.00337530495405704,0.000916328785844727,0.00351084036034003,0.00365702310693088,0.00156180221091366,-0.0019058038232297,-0.00599725181764691,-0.010758407257683,-0.0170135418203253,-0.0255231967318212,-0.0358037620166119,-0.0455123403375592,-0.0510569957589922,-0.0491310937810261,-0.0379927999714497,-0.0175411094008353,0.0115486498461166,0.0485032915352708,0.0921900542024256,0.140223886933095,0.188448081087605,0.231635698118698,0.265279410883205,0.287071502746039,0.296555632648182,0.2933400240789,0.276218313981831,0.244382575560224,0.199434437584384,0.145843300997514,0.0895817317968993,0.0363063389862072,-0.00978936194448515,-0.0463242191155541,-0.0726143433854539,-0.0893434385706975,-0.0981178506232862,-0.100972494408678,-0.0999166176981367,-0.0966100309338918,-0.0922202395912458,-0.0874480312829683,-0.0826567937430974,-0.0780240866266122,-0.0736548476535146,-0.069635142552822,-0.0660391122130173,-0.0629156790216729,-0.060276988882493,-0.0580979341805331,-0.0563254275769314,-0.0548916019157619,-0.0537257326012616,-0.0527623519526006,-0.0519453815645326,-0.0512292948223534,-0.0505785282683121,-0.0499660904324225,-0.0493719538386356,-0.0487815319931025,-0.0481843676889629,-0.0475730653864973,-0.0469424558726968,-0.0462889628531332,-0.0456101356229749,-0.0449043128489263,-0.0441703863621794,-0.0434076435227581,-0.042615644034378,-0.0417941612948377,-0.0409431297342883,-0.0400626123217045,-0.0391527771138064,-0.0382138782388452,-0.0372462380768108,-0.036250228379175,-0.035226248772893,-0.034174701604512,-0.0330959624714319,-0.0319903461119145,-0.0308580676220208,-0.0296991992628613,-0.0285136234322793,-0.0273009827101238,-0.0260606282475444,-0.0247915681539632,-0.0234924179304752,-0.0221613553898469,-0.0207960828701896,-0.0193937998661775,-0.0179511894386159,-0.0164644218874352,-0.0149291791503755,-0.0133407031856536,-0.0116938711803697,-0.00998329977144454,-0.00820347955519778,-0.00634893998995701,-0.00441444337325667,-0.00239520492953572,-0.00028713422505641,0.00191290879392589,0.00420685177049593,0.00659515235970615,0.00907655711616961,0.0116478900231405,0.0143038844447092,0.0170370721727457,0.0198377422758821,0.0226939805308671,0.0255917972660554,0.02851534747555,0.0314472421528507,0.0343689441187223,0.0372612354520016,0.0401047373450643,0.0428804572564598,0.045570333147134,0.0481577409220284,0.0506279295020257,0.0529683487022669,0.0551688386455752,0.0572216559617163,0.0591213214429005,0.0608642857940639,0.0624484239900201,0.0638723836063265,0.0651348271667657,0.066233621731444,0.0671650392727662,0.0679230375746509,0.0684986923943781,0.0688798467635549,0.069051032373823,0.0689937013517995,0.0686867853167925,0.0681075739195401,0.0672328790092316,0.0660404253811539,0.0645103870085991,0.0626269708999491,0.0603799410068393,0.0577659731260633,0.0547897389460469,0.0514646329495214,0.047813078670297,0.0438663789939787,0.0396641064497195,0.0352530611317044,0.0306858533548698,0.0260191929632983,0.0213119854143885,0.0166233450486621,0.0120106377704274,0.00752765893328517,0.00322303849051601,-0.000861054034215169,-0.00468985553938049,-0.0082365821307816,-0.0114826291796018,-0.0144174215081833,-0.0170379551527577,-0.019348085940717,-0.021357628598086,-0.0230813332733245,-0.024537804672791,-0.0257484232417547,-0.0267363190078126,-0.0275254379455735,-0.0281397291210119,-0.0286024694174433,-0.0289357321380413,-0.0291599968068848,-0.0292938904044893,-0.0293540452086397,-0.0293550553138792,-0.029309512752088,-0.0292281032302243,-0.0291197454144171,-0.0289917562390132,-0.0288500298616357,-0.0286992194991444,-0.0285429141656699,-0.0283838047188278,-0.0282235056564785,-0.0280636798315472,-0.0279051681924019,-0.0277484230318099,-0.0275935955926887,-0.0274406098105166,-0.0272892237350469,-0.0271390801936547,-0.026989748181126,-0.026840756326075,-0.0266916196233719,-0.0265418604571872,-0.0263910247850218,-0.0262386942176027,-0.0260844946161689,-0.0259281017374116,-0.0257692443849501,-0.0256077054713131,-0.0254433213521236,-0.0252759797608473,-0.0251056166447956,-0.0249322121784687,-0.0247557862068439,-0.0245763933476382,-0.0243941179572332,-0.0242090691397062,-0.0240213759524565,-0.0238311829357156,-0.0236386460673784,-0.0234439292197276,-0.0232472011713661,-0.0230486332065545,-0.0228483973155828,-0.0226466649940796,-0.0224436066263966,-0.0222393914284184,-0.0220341879181966,-0.0218281648784771,-0.0216214927731642,-0.021414345579679,-0.0212069030006284,-0.0209993530207845,-0.0207918947786786,-0.0205847417257491,-0.0203781250495959,-0.0201722973411493,-0.019967536488201,-0.0197641497794952,-0.0195624782042672,-0.0193629009315378,-0.0191658399514975,-0.0189717648577885,-0.0187811977442895,-0.0185947181829795,-0.0184129682404348,-0.0182366574793048,-0.0180665678774639,-0.0179035585811503,-0.0177485703889029,-0.0176026298400498,-0.0174668527543633,-0.0173424470376817,-0.0172307145311651,-0.0171330516387252,-0.0170509484174054,-0.0169859857585384,-0.0169398302230184,-0.0169142260219642,-0.0169109835548653,-0.0169319638321377,-0.0169790580198931,-0.0170541612548442,-0.0171591397912264,-0.0172957904656814,-0.0174657914083785,-0.0176706428994312,-0.0179115972811897,-0.0181895769035105,-0.0185050792165739,-0.0188580683513159,-0.0192478528584283,-0.0196729497296673,-0.0201828527883648,-0.020722152848786,-0.0212860876438844,-0.0218684484036813,-0.0224614028720168,-0.0230553227631579,-0.0236386227601427,-0.0241976194764749,-0.0247164200482494,-0.0251768511056418,-0.0255584396890388,-0.0258384581153801,-0.0259920447509571,-0.0259924119985527,-0.0258111514626392,-0.0254186441418856,-0.024784580571092,-0.0238785920943993,-0.0226709899480507,-0.0211336036707613,-0.0192407047097134,-0.0169699951769171,-0.0143036358155435,-0.0112292816850775,-0.00774108922400949,-0.00384065456603564,0.000462159375661813,0.00514855016621055,0.0101902991973303,0.0155495293679594,0.0211787296440134,0.0270210712496994,0.0330110305830566,0.039075322805563,0.0451341379547583,0.051102659021663,0.0568928294721174,0.0624153269819816,0.0675816915107379,0.0723065499925497,0.0765098774424555,0.0801192354307029,0.0830719335179682,0.0853170666750901,0.0868173906755813,0.0875510063522739,0.0875128312479148,0.0867158442292205,0.0851920995892296,0.0829935310816202,0.0801926116328457,0.0768829916572585,0.0731802507473047,0.0692227385909603,0.06517200173528,0.0612114878489799,0.0575414788205409,0.0543683835942494,0.0518884063179114,0.0502686998822416,0.0496307541199938,0.0500374765584511,0.0514772709856345,0.0538329772281898,0.0568326188176623,0.0600055737816046,0.0626941008339027,0.0641642604556454,0.0638068793218742,0.0613468218871982,0.0569470700550242,0.0511409658302708,0.0446251972844148,0.038024342499596,0.0317391990750968,0.0259243453712531,0.0205629690582299,0.0155705554426174,0.0108721538279132,0.00643410540651539,0.00226028671358393,-0.00162711257794014,-0.00520665559417668,-0.00846960908073763,-0.0114242306723673,-0.0140945873109215,-0.0165164178737204,-0.018731948883541,-0.0207848821893414,-0.02271625069387,-0.0245614772239923,-0.0263487185891439,-0.0280983976637735,-0.0298237075320728,-0.0315318074700014,-0.0332254141349061,-0.0349045130248731,-0.0365679631482162,-0.0382148297401309,-0.03984534504505,-0.0414614574211502,-0.0430669789924688,-0.0446673792047765,-0.0462692956204012,-0.0478798453971056,-0.0495058233472645,-0.0511528678289373,-0.0528246664621787,-0.0545222619130116,-0.0562435053621605,-0.0579826928634721,-0.0597304082108443,-0.0614735854225712,-0.0631957945473745,-0.0648777461536142,-0.066498002600253,-0.0680338781842195,-0.0694625059026142,-0.0707620464458147,-0.0719130158907025,-0.0728997134271694,-0.0737117416562343,-0.0743456356850655,-0.074806662049759,-0.0751108932059394,-0.0752875498338096,-0.0753809187330939,-0.0754494614279428,-0.0755574481166705,-0.0757535821747033,-0.076034460385514,-0.0763012036573636,-0.0763382164383102,-0.0758690875830168,-0.0747439772912184,-0.0732335686936709,-0.0722542183651381,-0.0732679716063744,-0.0777643935216626,-0.0865982691293424,-0.0996987498445526,-0.116475758456142,-0.136718943556236,-0.161335355396833,-0.192239817017327,-0.231127021532212,-0.27754918609969,-0.327360769220524,-0.372638046192994,-0.403344960265554,-0.409855038171173,-0.384983221901914,-0.324742099978818,-0.227946999382539,-0.0954376252373123,0.0700444224649787,0.262670249428545,0.471785604534795,0.681809836600408,0.87530986248987,1.03792781702122,1.16188760613265,1.24626450088878,1.29464675071458,1.31331003586825,1.31108818927636,1.29987419145447,1.29247753332973,1.29571326379456,1.30149254175266,1.28347567417865,1.20980443690397,1.05530368626224,0.817509599880509,0.521347847028698,0.209998346746727,-0.0722394585748255,-0.294876489849993,-0.446962324539272,-0.533619353444231,-0.568295756881104,-0.565877056193507,-0.539028311172157,-0.497401625039711,-0.448224908616389,-0.397048989065,-0.348143025298236,-0.304556543521608,-0.268065126493951,-0.239194905611706,-0.217414665916617,-0.2014778889808,-0.189829179401168,-0.18097172765857,-0.173717721736454,-0.167292173567206,-0.161308818689772,-0.155666867843451,-0.150423465735534,-0.145683829432137,-0.141529915587711,-0.137989207585553,-0.135033461366951,-0.132593674657356,-0.130579647731389,-0.1288969560705,-0.127458422532693,-0.126190055349402,-0.125032785236384,-0.123941616042485,-0.122883525319884,-0.121835008168601,-0.120779760798639,-0.119706720915482,-0.118608516200089,-0.117480288910634,-0.116318832152746,-0.115121968095226,-0.113888105672976,-0.112615927004874,-0.111304163826553,-0.109951435940383,-0.108556132442638,-0.107116323294172,-0.105629693891656,-0.104093498980705,-0.10250453482913,-0.1008591303,-0.0991531585243532,-0.0973820714109776,-0.0955409593388219,-0.0936246381159058,-0.0916277646948135,-0.0895449822362971,-0.0873710939350602,-0.0851012635976865,-0.0827312393364479,-0.080257594975482,-0.0776779819378558,-0.0749913825937447,-0.0721983544207262,-0.0693012529922586,-0.0663044209153794,-0.0632143295315249,-0.0600396606153069,-0.056791316574795,-0.0534823498583631,-0.050127805442565,-0.0467444743829374,-0.043350561347011,-0.0399652746200983,-0.036608352991538,-0.0332995498153602,-0.0300580999425767,-0.0269021996382529,-0.0238485325034183,-0.0209118753249833,-0.0181048162604421,-0.0154376135472843,-0.0129182159172525,-0.0105524562342587,-0.00834441796704716,-0.00629696063010535,-0.00441237620689991,-0.00269313493728188,-0.00114266695500234,0.000233882636069549,0.00142899240709349,0.0024322638240947,0.00323014199350968,0.00380590731225217,0.00413997061114366,0.00421048336165261,0.00399425074637527,0.00346791073630054,0.00260931886346813,0.00139905825128489,-0.000178020385794675,-0.0021313633346795,-0.00446336059750904,-0.00716835733749602,-0.0102319914933152,-0.0136309377171743,-0.0173330910528074,-0.0212981909110392,-0.0254788560438004,-0.0298219737024536,-0.0342703632191857,-0.0387646176448074,-0.0432450179742715,-0.0476534133509299,-0.0519349672017835,-0.056039682599538,-0.0599236388188799,-0.0635498932357742,-0.0668890264238852,-0.0699193315764947,-0.0726266704803139,-0.0750040357954705,-0.0770508724036535,-0.0787722186063974,-0.0801777309892495,-0.0812806552274834,-0.0820967997274197,-0.0826435607166251,-0.0829390372539556,-0.083001263652865,